"timestamp","sample","timestamp_min"
630410.15625,2368,7.9468359375
630414.0625,2360,7.94690104166667
630417.96875,2356,7.94696614583333
630421.875,2353,7.94703125
630425.78125,2351,7.94709635416667
630429.6875,2348,7.94716145833333
630433.59375,2346,7.9472265625
630437.5,2346,7.94729166666667
630441.40625,2342,7.94735677083333
630445.3125,2343,7.947421875
630449.21875,2343,7.94748697916667
630453.125,2342,7.94755208333333
630457.03125,2343,7.9476171875
630460.9375,2343,7.94768229166667
630464.84375,2341,7.94774739583333
630468.75,2344,7.9478125
630472.65625,2344,7.94787760416667
630476.5625,2346,7.94794270833333
630480.46875,2347,7.9480078125
630484.375,2348,7.94807291666667
630488.28125,2353,7.94813802083333
630492.1875,2355,7.948203125
630496.09375,2358,7.94826822916667
630500,2359,7.94833333333333
630503.90625,2361,7.9483984375
630507.8125,2362,7.94846354166667
630511.71875,2366,7.94852864583333
630515.625,2367,7.94859375
630519.53125,2365,7.94865885416667
630523.4375,2368,7.94872395833333
630527.34375,2368,7.9487890625
630531.25,2369,7.94885416666667
630535.15625,2372,7.94891927083333
630539.0625,2374,7.948984375
630542.96875,2375,7.94904947916667
630546.875,2376,7.94911458333333
630550.78125,2377,7.9491796875
630554.6875,2378,7.94924479166667
630558.59375,2377,7.94930989583333
630562.5,2378,7.949375
630566.40625,2376,7.94944010416667
630570.3125,2376,7.94950520833333
630574.21875,2376,7.9495703125
630578.125,2374,7.94963541666667
630582.03125,2373,7.94970052083333
630585.9375,2373,7.949765625
630589.84375,2373,7.94983072916667
630593.75,2370,7.94989583333333
630597.65625,2368,7.9499609375
630601.5625,2370,7.95002604166667
630605.46875,2369,7.95009114583333
630609.375,2367,7.95015625
630613.28125,2367,7.95022135416667
630617.1875,2365,7.95028645833333
630621.09375,2364,7.9503515625
630625,2363,7.95041666666667
630628.90625,2361,7.95048177083333
630632.8125,2361,7.950546875
630636.71875,2361,7.95061197916667
630640.625,2361,7.95067708333333
630644.53125,2361,7.9507421875
630648.4375,2362,7.95080729166667
630652.34375,2360,7.95087239583333
630656.25,2360,7.9509375
630660.15625,2360,7.95100260416667
630664.0625,2358,7.95106770833333
630667.96875,2358,7.9511328125
630671.875,2357,7.95119791666667
630675.78125,2357,7.95126302083333
630679.6875,2355,7.951328125
630683.59375,2356,7.95139322916667
630687.5,2356,7.95145833333333
630691.40625,2356,7.9515234375
630695.3125,2356,7.95158854166667
630699.21875,2356,7.95165364583333
630703.125,2357,7.95171875
630707.03125,2357,7.95178385416667
630710.9375,2358,7.95184895833333
630714.84375,2357,7.9519140625
630718.75,2356,7.95197916666667
630722.65625,2354,7.95204427083333
630726.5625,2355,7.952109375
630730.46875,2356,7.95217447916667
630734.375,2355,7.95223958333333
630738.28125,2357,7.9523046875
630742.1875,2356,7.95236979166667
630746.09375,2356,7.95243489583333
630750,2356,7.9525
630753.90625,2356,7.95256510416667
630757.8125,2356,7.95263020833333
630761.71875,2355,7.9526953125
630765.625,2356,7.95276041666667
630769.53125,2355,7.95282552083333
630773.4375,2355,7.952890625
630777.34375,2355,7.95295572916667
630781.25,2353,7.95302083333333
630785.15625,2355,7.9530859375
630789.0625,2355,7.95315104166667
630792.96875,2356,7.95321614583333
630796.875,2356,7.95328125
630800.78125,2357,7.95334635416667
630804.6875,2358,7.95341145833333
630808.59375,2357,7.9534765625
630812.5,2356,7.95354166666667
630816.40625,2358,7.95360677083333
630820.3125,2357,7.953671875
630824.21875,2359,7.95373697916667
630828.125,2360,7.95380208333333
630832.03125,2358,7.9538671875
630835.9375,2358,7.95393229166667
630839.84375,2358,7.95399739583333
630843.75,2358,7.9540625
630847.65625,2359,7.95412760416667
630851.5625,2359,7.95419270833333
630855.46875,2360,7.9542578125
630859.375,2361,7.95432291666667
630863.28125,2363,7.95438802083333
630867.1875,2362,7.954453125
630871.09375,2364,7.95451822916667
630875,2364,7.95458333333333
630878.90625,2364,7.9546484375
630882.8125,2364,7.95471354166667
630886.71875,2363,7.95477864583333
630890.625,2366,7.95484375
630894.53125,2366,7.95490885416667
630898.4375,2367,7.95497395833333
630902.34375,2368,7.9550390625
630906.25,2367,7.95510416666667
630910.15625,2369,7.95516927083333
630914.0625,2367,7.955234375
630917.96875,2368,7.95529947916667
630921.875,2368,7.95536458333333
630925.78125,2369,7.9554296875
630929.6875,2368,7.95549479166667
630933.59375,2370,7.95555989583333
630937.5,2372,7.955625
630941.40625,2373,7.95569010416667
630945.3125,2371,7.95575520833333
630949.21875,2372,7.9558203125
630953.125,2375,7.95588541666667
630957.03125,2372,7.95595052083333
630960.9375,2371,7.956015625
630964.84375,2372,7.95608072916667
630968.75,2379,7.95614583333333
630972.65625,2382,7.9562109375
630976.5625,2384,7.95627604166667
630980.46875,2389,7.95634114583333
630984.375,2394,7.95640625
630988.28125,2394,7.95647135416667
630992.1875,2389,7.95653645833333
630996.09375,2384,7.9566015625
631000,2379,7.95666666666667
631003.90625,2376,7.95673177083333
631007.8125,2372,7.956796875
631011.71875,2371,7.95686197916667
631015.625,2371,7.95692708333333
631019.53125,2369,7.9569921875
631023.4375,2369,7.95705729166667
631027.34375,2368,7.95712239583333
631031.25,2367,7.9571875
631035.15625,2366,7.95725260416667
631039.0625,2368,7.95731770833333
631042.96875,2369,7.9573828125
631046.875,2368,7.95744791666667
631050.78125,2369,7.95751302083333
631054.6875,2368,7.957578125
631058.59375,2365,7.95764322916667
631062.5,2361,7.95770833333333
631066.40625,2371,7.9577734375
631070.3125,2414,7.95783854166667
631074.21875,2484,7.95790364583333
631078.125,2570,7.95796875
631082.03125,2680,7.95803385416667
631085.9375,2791,7.95809895833333
631089.84375,2871,7.9581640625
631093.75,2929,7.95822916666667
631097.65625,2988,7.95829427083333
631101.5625,2851,7.958359375
631105.46875,2555,7.95842447916667
631109.375,2259,7.95848958333333
631113.28125,2065,7.9585546875
631117.1875,2001,7.95861979166667
631121.09375,1981,7.95868489583333
631125,1981,7.95875
631128.90625,2024,7.95881510416667
631132.8125,2083,7.95888020833333
631136.71875,2137,7.9589453125
631140.625,2202,7.95901041666667
631144.53125,2259,7.95907552083333
631148.4375,2301,7.959140625
631152.34375,2331,7.95920572916667
631156.25,2346,7.95927083333333
631160.15625,2351,7.9593359375
631164.0625,2355,7.95940104166667
631167.96875,2360,7.95946614583333
631171.875,2364,7.95953125
631175.78125,2370,7.95959635416667
631179.6875,2375,7.95966145833333
631183.59375,2378,7.9597265625
631187.5,2379,7.95979166666667
631191.40625,2381,7.95985677083333
631195.3125,2384,7.959921875
631199.21875,2388,7.95998697916667
631203.125,2390,7.96005208333333
631207.03125,2391,7.9601171875
631210.9375,2396,7.96018229166667
631214.84375,2397,7.96024739583333
631218.75,2399,7.9603125
631222.65625,2399,7.96037760416667
631226.5625,2401,7.96044270833333
631230.46875,2403,7.9605078125
631234.375,2405,7.96057291666667
631238.28125,2405,7.96063802083333
631242.1875,2411,7.960703125
631246.09375,2417,7.96076822916667
631250,2420,7.96083333333333
631253.90625,2424,7.9608984375
631257.8125,2426,7.96096354166667
631261.71875,2432,7.96102864583333
631265.625,2434,7.96109375
631269.53125,2439,7.96115885416667
631273.4375,2444,7.96122395833333
631277.34375,2449,7.9612890625
631281.25,2457,7.96135416666667
631285.15625,2464,7.96141927083333
631289.0625,2470,7.961484375
631292.96875,2480,7.96154947916667
631296.875,2490,7.96161458333333
631300.78125,2499,7.9616796875
631304.6875,2509,7.96174479166667
631308.59375,2519,7.96180989583333
631312.5,2527,7.961875
631316.40625,2538,7.96194010416667
631320.3125,2548,7.96200520833333
631324.21875,2558,7.9620703125
631328.125,2566,7.96213541666667
631332.03125,2574,7.96220052083333
631335.9375,2586,7.962265625
631339.84375,2592,7.96233072916667
631343.75,2595,7.96239583333333
631347.65625,2595,7.9624609375
631351.5625,2596,7.96252604166667
631355.46875,2598,7.96259114583333
631359.375,2598,7.96265625
631363.28125,2595,7.96272135416667
631367.1875,2590,7.96278645833333
631371.09375,2579,7.9628515625
631375,2567,7.96291666666667
631378.90625,2552,7.96298177083333
631382.8125,2535,7.963046875
631386.71875,2518,7.96311197916667
631390.625,2495,7.96317708333333
631394.53125,2472,7.9632421875
631398.4375,2448,7.96330729166667
631402.34375,2427,7.96337239583333
631406.25,2407,7.9634375
631410.15625,2385,7.96350260416667
631414.0625,2367,7.96356770833333
631417.96875,2352,7.9636328125
631421.875,2342,7.96369791666667
631425.78125,2331,7.96376302083333
631429.6875,2319,7.963828125
631433.59375,2311,7.96389322916667
631437.5,2304,7.96395833333333
631441.40625,2297,7.9640234375
631445.3125,2295,7.96408854166667
631449.21875,2291,7.96415364583333
631453.125,2286,7.96421875
631457.03125,2284,7.96428385416667
631460.9375,2283,7.96434895833333
631464.84375,2283,7.9644140625
631468.75,2283,7.96447916666667
631472.65625,2281,7.96454427083333
631476.5625,2279,7.964609375
631480.46875,2277,7.96467447916667
631484.375,2274,7.96473958333333
631488.28125,2275,7.9648046875
631492.1875,2276,7.96486979166667
631496.09375,2277,7.96493489583333
631500,2277,7.965
631503.90625,2275,7.96506510416667
631507.8125,2276,7.96513020833333
631511.71875,2276,7.9651953125
631515.625,2274,7.96526041666667
631519.53125,2275,7.96532552083333
631523.4375,2284,7.965390625
631527.34375,2286,7.96545572916667
631531.25,2283,7.96552083333333
631535.15625,2285,7.9655859375
631539.0625,2284,7.96565104166667
631542.96875,2285,7.96571614583333
631546.875,2287,7.96578125
631550.78125,2289,7.96584635416667
631554.6875,2290,7.96591145833333
631558.59375,2291,7.9659765625
631562.5,2292,7.96604166666667
631566.40625,2292,7.96610677083333
631570.3125,2292,7.966171875
631574.21875,2292,7.96623697916667
631578.125,2291,7.96630208333333
631582.03125,2293,7.9663671875
631585.9375,2292,7.96643229166667
631589.84375,2290,7.96649739583333
631593.75,2290,7.9665625
631597.65625,2288,7.96662760416667
631601.5625,2285,7.96669270833333
631605.46875,2285,7.9667578125
631609.375,2288,7.96682291666667
631613.28125,2288,7.96688802083333
631617.1875,2286,7.966953125
631621.09375,2282,7.96701822916667
631625,2281,7.96708333333333
631628.90625,2280,7.9671484375
631632.8125,2277,7.96721354166667
631636.71875,2274,7.96727864583333
631640.625,2270,7.96734375
631644.53125,2272,7.96740885416667
631648.4375,2271,7.96747395833333
631652.34375,2269,7.9675390625
631656.25,2269,7.96760416666667
631660.15625,2267,7.96766927083333
631664.0625,2265,7.967734375
631667.96875,2265,7.96779947916667
631671.875,2270,7.96786458333333
631675.78125,2267,7.9679296875
631679.6875,2264,7.96799479166667
631683.59375,2265,7.96805989583333
631687.5,2262,7.968125
631691.40625,2257,7.96819010416667
631695.3125,2258,7.96825520833333
631699.21875,2261,7.9683203125
631703.125,2257,7.96838541666667
631707.03125,2258,7.96845052083333
631710.9375,2259,7.968515625
631714.84375,2259,7.96858072916667
631718.75,2257,7.96864583333333
631722.65625,2253,7.9687109375
631726.5625,2257,7.96877604166667
631730.46875,2260,7.96884114583333
631734.375,2255,7.96890625
631738.28125,2254,7.96897135416667
631742.1875,2255,7.96903645833333
631746.09375,2254,7.9691015625
631750,2252,7.96916666666667
631753.90625,2251,7.96923177083333
631757.8125,2250,7.969296875
631761.71875,2251,7.96936197916667
631765.625,2251,7.96942708333333
631769.53125,2250,7.9694921875
631773.4375,2250,7.96955729166667
631777.34375,2247,7.96962239583333
631781.25,2250,7.9696875
631785.15625,2250,7.96975260416667
631789.0625,2248,7.96981770833333
631792.96875,2248,7.9698828125
631796.875,2252,7.96994791666667
631800.78125,2253,7.97001302083333
631804.6875,2250,7.970078125
631808.59375,2249,7.97014322916667
631812.5,2252,7.97020833333333
631816.40625,2252,7.9702734375
631820.3125,2251,7.97033854166667
631824.21875,2252,7.97040364583333
631828.125,2255,7.97046875
631832.03125,2252,7.97053385416667
631835.9375,2252,7.97059895833333
631839.84375,2252,7.9706640625
631843.75,2251,7.97072916666667
631847.65625,2251,7.97079427083333
631851.5625,2254,7.970859375
631855.46875,2254,7.97092447916667
631859.375,2249,7.97098958333333
631863.28125,2250,7.9710546875
631867.1875,2251,7.97111979166667
631871.09375,2252,7.97118489583333
631875,2258,7.97125
631878.90625,2255,7.97131510416667
631882.8125,2254,7.97138020833333
631886.71875,2254,7.9714453125
631890.625,2255,7.97151041666667
631894.53125,2252,7.97157552083333
631898.4375,2253,7.971640625
631902.34375,2253,7.97170572916667
631906.25,2252,7.97177083333333
631910.15625,2255,7.9718359375
631914.0625,2259,7.97190104166667
631917.96875,2263,7.97196614583333
631921.875,2262,7.97203125
631925.78125,2263,7.97209635416667
631929.6875,2262,7.97216145833333
631933.59375,2263,7.9722265625
631937.5,2263,7.97229166666667
631941.40625,2269,7.97235677083333
631945.3125,2277,7.972421875
631949.21875,2284,7.97248697916667
631953.125,2286,7.97255208333333
631957.03125,2279,7.9726171875
631960.9375,2269,7.97268229166667
631964.84375,2263,7.97274739583333
631968.75,2264,7.9728125
631972.65625,2265,7.97287760416667
631976.5625,2267,7.97294270833333
631980.46875,2266,7.9730078125
631984.375,2260,7.97307291666667
631988.28125,2259,7.97313802083333
631992.1875,2259,7.973203125
631996.09375,2256,7.97326822916667
632000,2254,7.97333333333333
632003.90625,2252,7.9733984375
632007.8125,2258,7.97346354166667
632011.71875,2256,7.97352864583333
632015.625,2257,7.97359375
632019.53125,2253,7.97365885416667
632023.4375,2247,7.97372395833333
632027.34375,2251,7.9737890625
632031.25,2280,7.97385416666667
632035.15625,2343,7.97391927083333
632039.0625,2423,7.973984375
632042.96875,2528,7.97404947916667
632046.875,2650,7.97411458333333
632050.78125,2762,7.9741796875
632054.6875,2827,7.97424479166667
632058.59375,2880,7.97430989583333
632062.5,2838,7.974375
632066.40625,2608,7.97444010416667
632070.3125,2285,7.97450520833333
632074.21875,2005,7.9745703125
632078.125,1891,7.97463541666667
632082.03125,1852,7.97470052083333
632085.9375,1827,7.974765625
632089.84375,1833,7.97483072916667
632093.75,1877,7.97489583333333
632097.65625,1936,7.9749609375
632101.5625,2000,7.97502604166667
632105.46875,2082,7.97509114583333
632109.375,2148,7.97515625
632113.28125,2192,7.97522135416667
632117.1875,2222,7.97528645833333
632121.09375,2238,7.9753515625
632125,2248,7.97541666666667
632128.90625,2254,7.97548177083333
632132.8125,2261,7.975546875
632136.71875,2265,7.97561197916667
632140.625,2264,7.97567708333333
632144.53125,2266,7.9757421875
632148.4375,2264,7.97580729166667
632152.34375,2267,7.97587239583333
632156.25,2279,7.9759375
632160.15625,2282,7.97600260416667
632164.0625,2284,7.97606770833333
632167.96875,2288,7.9761328125
632171.875,2291,7.97619791666667
632175.78125,2293,7.97626302083333
632179.6875,2298,7.976328125
632183.59375,2302,7.97639322916667
632187.5,2309,7.97645833333333
632191.40625,2311,7.9765234375
632195.3125,2311,7.97658854166667
632199.21875,2314,7.97665364583333
632203.125,2315,7.97671875
632207.03125,2318,7.97678385416667
632210.9375,2319,7.97684895833333
632214.84375,2323,7.9769140625
632218.75,2322,7.97697916666667
632222.65625,2333,7.97704427083333
632226.5625,2342,7.977109375
632230.46875,2348,7.97717447916667
632234.375,2354,7.97723958333333
632238.28125,2358,7.9773046875
632242.1875,2357,7.97736979166667
632246.09375,2368,7.97743489583333
632250,2376,7.9775
632253.90625,2388,7.97756510416667
632257.8125,2402,7.97763020833333
632261.71875,2407,7.9776953125
632265.625,2418,7.97776041666667
632269.53125,2427,7.97782552083333
632273.4375,2439,7.977890625
632277.34375,2453,7.97795572916667
632281.25,2466,7.97802083333333
632285.15625,2480,7.9780859375
632289.0625,2489,7.97815104166667
632292.96875,2494,7.97821614583333
632296.875,2497,7.97828125
632300.78125,2503,7.97834635416667
632304.6875,2518,7.97841145833333
632308.59375,2527,7.9784765625
632312.5,2528,7.97854166666667
632316.40625,2522,7.97860677083333
632320.3125,2524,7.978671875
632324.21875,2517,7.97873697916667
632328.125,2513,7.97880208333333
632332.03125,2505,7.9788671875
632335.9375,2498,7.97893229166667
632339.84375,2476,7.97899739583333
632343.75,2460,7.9790625
632347.65625,2442,7.97912760416667
632351.5625,2415,7.97919270833333
632355.46875,2389,7.9792578125
632359.375,2365,7.97932291666667
632363.28125,2348,7.97938802083333
632367.1875,2332,7.979453125
632371.09375,2309,7.97951822916667
632375,2287,7.97958333333333
632378.90625,2271,7.9796484375
632382.8125,2254,7.97971354166667
632386.71875,2242,7.97977864583333
632390.625,2235,7.97984375
632394.53125,2226,7.97990885416667
632398.4375,2215,7.97997395833333
632402.34375,2209,7.9800390625
632406.25,2204,7.98010416666667
632410.15625,2198,7.98016927083333
632414.0625,2196,7.980234375
632417.96875,2194,7.98029947916667
632421.875,2191,7.98036458333333
632425.78125,2184,7.9804296875
632429.6875,2178,7.98049479166667
632433.59375,2177,7.98055989583333
632437.5,2177,7.980625
632441.40625,2180,7.98069010416667
632445.3125,2180,7.98075520833333
632449.21875,2178,7.9808203125
632453.125,2186,7.98088541666667
632457.03125,2189,7.98095052083333
632460.9375,2186,7.981015625
632464.84375,2186,7.98108072916667
632468.75,2190,7.98114583333333
632472.65625,2198,7.9812109375
632476.5625,2191,7.98127604166667
632480.46875,2192,7.98134114583333
632484.375,2191,7.98140625
632488.28125,2193,7.98147135416667
632492.1875,2193,7.98153645833333
632496.09375,2195,7.9816015625
632500,2203,7.98166666666667
632503.90625,2206,7.98173177083333
632507.8125,2211,7.981796875
632511.71875,2208,7.98186197916667
632515.625,2212,7.98192708333333
632519.53125,2217,7.9819921875
632523.4375,2213,7.98205729166667
632527.34375,2217,7.98212239583333
632531.25,2218,7.9821875
632535.15625,2221,7.98225260416667
632539.0625,2225,7.98231770833333
632542.96875,2219,7.9823828125
632546.875,2217,7.98244791666667
632550.78125,2217,7.98251302083333
632554.6875,2221,7.982578125
632558.59375,2219,7.98264322916667
632562.5,2221,7.98270833333333
632566.40625,2215,7.9827734375
632570.3125,2215,7.98283854166667
632574.21875,2215,7.98290364583333
632578.125,2214,7.98296875
632582.03125,2212,7.98303385416667
632585.9375,2209,7.98309895833333
632589.84375,2211,7.9831640625
632593.75,2208,7.98322916666667
632597.65625,2208,7.98329427083333
632601.5625,2207,7.983359375
632605.46875,2205,7.98342447916667
632609.375,2207,7.98348958333333
632613.28125,2207,7.9835546875
632617.1875,2210,7.98361979166667
632621.09375,2213,7.98368489583333
632625,2209,7.98375
632628.90625,2207,7.98381510416667
632632.8125,2204,7.98388020833333
632636.71875,2206,7.9839453125
632640.625,2208,7.98401041666667
632644.53125,2208,7.98407552083333
632648.4375,2206,7.984140625
632652.34375,2206,7.98420572916667
632656.25,2205,7.98427083333333
632660.15625,2207,7.9843359375
632664.0625,2201,7.98440104166667
632667.96875,2205,7.98446614583333
632671.875,2201,7.98453125
632675.78125,2197,7.98459635416667
632679.6875,2195,7.98466145833333
632683.59375,2199,7.9847265625
632687.5,2201,7.98479166666667
632691.40625,2201,7.98485677083333
632695.3125,2203,7.984921875
632699.21875,2203,7.98498697916667
632703.125,2202,7.98505208333333
632707.03125,2210,7.9851171875
632710.9375,2210,7.98518229166667
632714.84375,2213,7.98524739583333
632718.75,2210,7.9853125
632722.65625,2210,7.98537760416667
632726.5625,2202,7.98544270833333
632730.46875,2201,7.9855078125
632734.375,2198,7.98557291666667
632738.28125,2214,7.98563802083333
632742.1875,2212,7.985703125
632746.09375,2210,7.98576822916667
632750,2212,7.98583333333333
632753.90625,2218,7.9858984375
632757.8125,2217,7.98596354166667
632761.71875,2220,7.98602864583333
632765.625,2223,7.98609375
632769.53125,2227,7.98615885416667
632773.4375,2226,7.98622395833333
632777.34375,2227,7.9862890625
632781.25,2227,7.98635416666667
632785.15625,2217,7.98641927083333
632789.0625,2220,7.986484375
632792.96875,2228,7.98654947916667
632796.875,2230,7.98661458333333
632800.78125,2231,7.9866796875
632804.6875,2234,7.98674479166667
632808.59375,2233,7.98680989583333
632812.5,2231,7.986875
632816.40625,2223,7.98694010416667
632820.3125,2231,7.98700520833333
632824.21875,2242,7.9870703125
632828.125,2255,7.98713541666667
632832.03125,2260,7.98720052083333
632835.9375,2263,7.987265625
632839.84375,2274,7.98733072916667
632843.75,2278,7.98739583333333
632847.65625,2277,7.9874609375
632851.5625,2268,7.98752604166667
632855.46875,2265,7.98759114583333
632859.375,2264,7.98765625
632863.28125,2260,7.98772135416667
632867.1875,2260,7.98778645833333
632871.09375,2262,7.9878515625
632875,2259,7.98791666666667
632878.90625,2259,7.98798177083333
632882.8125,2256,7.988046875
632886.71875,2259,7.98811197916667
632890.625,2262,7.98817708333333
632894.53125,2260,7.9882421875
632898.4375,2255,7.98830729166667
632902.34375,2261,7.98837239583333
632906.25,2270,7.9884375
632910.15625,2272,7.98850260416667
632914.0625,2270,7.98856770833333
632917.96875,2268,7.9886328125
632921.875,2289,7.98869791666667
632925.78125,2341,7.98876302083333
632929.6875,2422,7.988828125
632933.59375,2521,7.98889322916667
632937.5,2654,7.98895833333333
632941.40625,2788,7.9890234375
632945.3125,2865,7.98908854166667
632949.21875,2908,7.98915364583333
632953.125,2942,7.98921875
632957.03125,2777,7.98928385416667
632960.9375,2452,7.98934895833333
632964.84375,2121,7.9894140625
632968.75,1918,7.98947916666667
632972.65625,1867,7.98954427083333
632976.5625,1833,7.989609375
632980.46875,1832,7.98967447916667
632984.375,1855,7.98973958333333
632988.28125,1922,7.9898046875
632992.1875,1992,7.98986979166667
632996.09375,2071,7.98993489583333
633000,2158,7.99
633003.90625,2217,7.99006510416667
633007.8125,2260,7.99013020833333
633011.71875,2283,7.9901953125
633015.625,2300,7.99026041666667
633019.53125,2309,7.99032552083333
633023.4375,2319,7.990390625
633027.34375,2327,7.99045572916667
633031.25,2330,7.99052083333333
633035.15625,2334,7.9905859375
633039.0625,2333,7.99065104166667
633042.96875,2341,7.99071614583333
633046.875,2343,7.99078125
633050.78125,2351,7.99084635416667
633054.6875,2355,7.99091145833333
633058.59375,2358,7.9909765625
633062.5,2362,7.99104166666667
633066.40625,2367,7.99110677083333
633070.3125,2372,7.991171875
633074.21875,2373,7.99123697916667
633078.125,2377,7.99130208333333
633082.03125,2374,7.9913671875
633085.9375,2378,7.99143229166667
633089.84375,2385,7.99149739583333
633093.75,2389,7.9915625
633097.65625,2394,7.99162760416667
633101.5625,2403,7.99169270833333
633105.46875,2408,7.9917578125
633109.375,2411,7.99182291666667
633113.28125,2413,7.99188802083333
633117.1875,2422,7.991953125
633121.09375,2430,7.99201822916667
633125,2436,7.99208333333333
633128.90625,2439,7.9921484375
633132.8125,2448,7.99221354166667
633136.71875,2459,7.99227864583333
633140.625,2470,7.99234375
633144.53125,2474,7.99240885416667
633148.4375,2479,7.99247395833333
633152.34375,2489,7.9925390625
633156.25,2508,7.99260416666667
633160.15625,2519,7.99266927083333
633164.0625,2528,7.992734375
633167.96875,2541,7.99279947916667
633171.875,2554,7.99286458333333
633175.78125,2570,7.9929296875
633179.6875,2585,7.99299479166667
633183.59375,2594,7.99305989583333
633187.5,2603,7.993125
633191.40625,2610,7.99319010416667
633195.3125,2615,7.99325520833333
633199.21875,2620,7.9933203125
633203.125,2626,7.99338541666667
633207.03125,2632,7.99345052083333
633210.9375,2632,7.993515625
633214.84375,2627,7.99358072916667
633218.75,2618,7.99364583333333
633222.65625,2610,7.9937109375
633226.5625,2595,7.99377604166667
633230.46875,2581,7.99384114583333
633234.375,2566,7.99390625
633238.28125,2545,7.99397135416667
633242.1875,2526,7.99403645833333
633246.09375,2503,7.9941015625
633250,2478,7.99416666666667
633253.90625,2451,7.99423177083333
633257.8125,2434,7.994296875
633261.71875,2415,7.99436197916667
633265.625,2393,7.99442708333333
633269.53125,2378,7.9944921875
633273.4375,2359,7.99455729166667
633277.34375,2347,7.99462239583333
633281.25,2340,7.9946875
633285.15625,2327,7.99475260416667
633289.0625,2319,7.99481770833333
633292.96875,2312,7.9948828125
633296.875,2303,7.99494791666667
633300.78125,2300,7.99501302083333
633304.6875,2295,7.995078125
633308.59375,2299,7.99514322916667
633312.5,2297,7.99520833333333
633316.40625,2294,7.9952734375
633320.3125,2287,7.99533854166667
633324.21875,2286,7.99540364583333
633328.125,2290,7.99546875
633332.03125,2290,7.99553385416667
633335.9375,2292,7.99559895833333
633339.84375,2295,7.9956640625
633343.75,2295,7.99572916666667
633347.65625,2296,7.99579427083333
633351.5625,2293,7.995859375
633355.46875,2298,7.99592447916667
633359.375,2298,7.99598958333333
633363.28125,2301,7.9960546875
633367.1875,2308,7.99611979166667
633371.09375,2312,7.99618489583333
633375,2313,7.99625
633378.90625,2313,7.99631510416667
633382.8125,2316,7.99638020833333
633386.71875,2320,7.9964453125
633390.625,2318,7.99651041666667
633394.53125,2320,7.99657552083333
633398.4375,2324,7.996640625
633402.34375,2328,7.99670572916667
633406.25,2331,7.99677083333333
633410.15625,2334,7.9968359375
633414.0625,2334,7.99690104166667
633417.96875,2337,7.99696614583333
633421.875,2339,7.99703125
633425.78125,2342,7.99709635416667
633429.6875,2342,7.99716145833333
633433.59375,2343,7.9972265625
633437.5,2344,7.99729166666667
633441.40625,2347,7.99735677083333
633445.3125,2344,7.997421875
633449.21875,2344,7.99748697916667
633453.125,2346,7.99755208333333
633457.03125,2346,7.9976171875
633460.9375,2347,7.99768229166667
633464.84375,2341,7.99774739583333
633468.75,2338,7.9978125
633472.65625,2337,7.99787760416667
633476.5625,2339,7.99794270833333
633480.46875,2337,7.9980078125
633484.375,2334,7.99807291666667
633488.28125,2339,7.99813802083333
633492.1875,2338,7.998203125
633496.09375,2334,7.99826822916667
633500,2332,7.99833333333333
633503.90625,2331,7.9983984375
633507.8125,2334,7.99846354166667
633511.71875,2331,7.99852864583333
633515.625,2330,7.99859375
633519.53125,2333,7.99865885416667
633523.4375,2336,7.99872395833333
633527.34375,2339,7.9987890625
633531.25,2337,7.99885416666667
633535.15625,2337,7.99891927083333
633539.0625,2340,7.998984375
633542.96875,2340,7.99904947916667
633546.875,2338,7.99911458333333
633550.78125,2333,7.9991796875
633554.6875,2330,7.99924479166667
633558.59375,2329,7.99930989583333
633562.5,2328,7.999375
633566.40625,2331,7.99944010416667
633570.3125,2333,7.99950520833333
633574.21875,2339,7.9995703125
633578.125,2342,7.99963541666667
633582.03125,2341,7.99970052083333
633585.9375,2341,7.999765625
633589.84375,2342,7.99983072916667
633593.75,2342,7.99989583333333
633597.65625,2346,7.9999609375
633601.5625,2343,8.00002604166667
633605.46875,2340,8.00009114583333
633609.375,2341,8.00015625
633613.28125,2345,8.00022135416667
633617.1875,2344,8.00028645833333
633621.09375,2343,8.0003515625
633625,2346,8.00041666666667
633628.90625,2347,8.00048177083333
633632.8125,2346,8.000546875
633636.71875,2347,8.00061197916667
633640.625,2352,8.00067708333333
633644.53125,2352,8.0007421875
633648.4375,2353,8.00080729166667
633652.34375,2351,8.00087239583333
633656.25,2350,8.0009375
633660.15625,2345,8.00100260416667
633664.0625,2344,8.00106770833333
633667.96875,2345,8.0011328125
633671.875,2354,8.00119791666667
633675.78125,2361,8.00126302083333
633679.6875,2371,8.001328125
633683.59375,2380,8.00139322916667
633687.5,2390,8.00145833333333
633691.40625,2392,8.0015234375
633695.3125,2380,8.00158854166667
633699.21875,2377,8.00165364583333
633703.125,2367,8.00171875
633707.03125,2362,8.00178385416667
633710.9375,2358,8.00184895833333
633714.84375,2361,8.0019140625
633718.75,2369,8.00197916666667
633722.65625,2368,8.00204427083333
633726.5625,2367,8.002109375
633730.46875,2369,8.00217447916667
633734.375,2372,8.00223958333333
633738.28125,2371,8.0023046875
633742.1875,2371,8.00236979166667
633746.09375,2375,8.00243489583333
633750,2372,8.0025
633753.90625,2367,8.00256510416667
633757.8125,2366,8.00263020833333
633761.71875,2366,8.0026953125
633765.625,2365,8.00276041666667
633769.53125,2394,8.00282552083333
633773.4375,2460,8.002890625
633777.34375,2542,8.00295572916667
633781.25,2656,8.00302083333333
633785.15625,2786,8.0030859375
633789.0625,2902,8.00315104166667
633792.96875,2966,8.00321614583333
633796.875,3017,8.00328125
633800.78125,3020,8.00334635416667
633804.6875,2798,8.00341145833333
633808.59375,2454,8.0034765625
633812.5,2143,8.00354166666667
633816.40625,1997,8.00360677083333
633820.3125,1961,8.003671875
633824.21875,1942,8.00373697916667
633828.125,1957,8.00380208333333
633832.03125,2003,8.0038671875
633835.9375,2060,8.00393229166667
633839.84375,2124,8.00399739583333
633843.75,2205,8.0040625
633847.65625,2272,8.00412760416667
633851.5625,2318,8.00419270833333
633855.46875,2354,8.0042578125
633859.375,2370,8.00432291666667
633863.28125,2378,8.00438802083333
633867.1875,2384,8.004453125
633871.09375,2388,8.00451822916667
633875,2393,8.00458333333333
633878.90625,2400,8.0046484375
633882.8125,2407,8.00471354166667
633886.71875,2411,8.00477864583333
633890.625,2413,8.00484375
633894.53125,2414,8.00490885416667
633898.4375,2415,8.00497395833333
633902.34375,2418,8.0050390625
633906.25,2420,8.00510416666667
633910.15625,2425,8.00516927083333
633914.0625,2429,8.005234375
633917.96875,2432,8.00529947916667
633921.875,2436,8.00536458333333
633925.78125,2438,8.0054296875
633929.6875,2444,8.00549479166667
633933.59375,2444,8.00555989583333
633937.5,2449,8.005625
633941.40625,2455,8.00569010416667
633945.3125,2456,8.00575520833333
633949.21875,2462,8.0058203125
633953.125,2466,8.00588541666667
633957.03125,2472,8.00595052083333
633960.9375,2478,8.006015625
633964.84375,2484,8.00608072916667
633968.75,2488,8.00614583333333
633972.65625,2493,8.0062109375
633976.5625,2497,8.00627604166667
633980.46875,2504,8.00634114583333
633984.375,2512,8.00640625
633988.28125,2519,8.00647135416667
633992.1875,2528,8.00653645833333
633996.09375,2540,8.0066015625
634000,2554,8.00666666666667
634003.90625,2564,8.00673177083333
634007.8125,2570,8.006796875
634011.71875,2583,8.00686197916667
634015.625,2599,8.00692708333333
634019.53125,2612,8.0069921875
634023.4375,2621,8.00705729166667
634027.34375,2630,8.00712239583333
634031.25,2636,8.0071875
634035.15625,2643,8.00725260416667
634039.0625,2654,8.00731770833333
634042.96875,2662,8.0073828125
634046.875,2665,8.00744791666667
634050.78125,2664,8.00751302083333
634054.6875,2665,8.007578125
634058.59375,2662,8.00764322916667
634062.5,2656,8.00770833333333
634066.40625,2647,8.0077734375
634070.3125,2633,8.00783854166667
634074.21875,2619,8.00790364583333
634078.125,2604,8.00796875
634082.03125,2586,8.00803385416667
634085.9375,2564,8.00809895833333
634089.84375,2543,8.0081640625
634093.75,2518,8.00822916666667
634097.65625,2494,8.00829427083333
634101.5625,2470,8.008359375
634105.46875,2448,8.00842447916667
634109.375,2432,8.00848958333333
634113.28125,2418,8.0085546875
634117.1875,2401,8.00861979166667
634121.09375,2388,8.00868489583333
634125,2374,8.00875
634128.90625,2365,8.00881510416667
634132.8125,2355,8.00888020833333
634136.71875,2352,8.0089453125
634140.625,2348,8.00901041666667
634144.53125,2346,8.00907552083333
634148.4375,2339,8.009140625
634152.34375,2335,8.00920572916667
634156.25,2333,8.00927083333333
634160.15625,2331,8.0093359375
634164.0625,2331,8.00940104166667
634167.96875,2331,8.00946614583333
634171.875,2332,8.00953125
634175.78125,2331,8.00959635416667
634179.6875,2327,8.00966145833333
634183.59375,2330,8.0097265625
634187.5,2331,8.00979166666667
634191.40625,2335,8.00985677083333
634195.3125,2337,8.009921875
634199.21875,2335,8.00998697916667
634203.125,2336,8.01005208333333
634207.03125,2338,8.0101171875
634210.9375,2340,8.01018229166667
634214.84375,2342,8.01024739583333
634218.75,2347,8.0103125
634222.65625,2350,8.01037760416667
634226.5625,2348,8.01044270833333
634230.46875,2352,8.0105078125
634234.375,2354,8.01057291666667
634238.28125,2358,8.01063802083333
634242.1875,2358,8.010703125
634246.09375,2358,8.01076822916667
634250,2358,8.01083333333333
634253.90625,2359,8.0108984375
634257.8125,2359,8.01096354166667
634261.71875,2362,8.01102864583333
634265.625,2365,8.01109375
634269.53125,2367,8.01115885416667
634273.4375,2367,8.01122395833333
634277.34375,2368,8.0112890625
634281.25,2366,8.01135416666667
634285.15625,2364,8.01141927083333
634289.0625,2364,8.011484375
634292.96875,2368,8.01154947916667
634296.875,2371,8.01161458333333
634300.78125,2374,8.0116796875
634304.6875,2374,8.01174479166667
634308.59375,2371,8.01180989583333
634312.5,2369,8.011875
634316.40625,2368,8.01194010416667
634320.3125,2366,8.01200520833333
634324.21875,2365,8.0120703125
634328.125,2360,8.01213541666667
634332.03125,2358,8.01220052083333
634335.9375,2358,8.012265625
634339.84375,2358,8.01233072916667
634343.75,2359,8.01239583333333
634347.65625,2356,8.0124609375
634351.5625,2356,8.01252604166667
634355.46875,2357,8.01259114583333
634359.375,2357,8.01265625
634363.28125,2357,8.01272135416667
634367.1875,2356,8.01278645833333
634371.09375,2355,8.0128515625
634375,2354,8.01291666666667
634378.90625,2356,8.01298177083333
634382.8125,2355,8.013046875
634386.71875,2355,8.01311197916667
634390.625,2356,8.01317708333333
634394.53125,2356,8.0132421875
634398.4375,2357,8.01330729166667
634402.34375,2354,8.01337239583333
634406.25,2353,8.0134375
634410.15625,2354,8.01350260416667
634414.0625,2355,8.01356770833333
634417.96875,2354,8.0136328125
634421.875,2353,8.01369791666667
634425.78125,2354,8.01376302083333
634429.6875,2355,8.013828125
634433.59375,2353,8.01389322916667
634437.5,2351,8.01395833333333
634441.40625,2353,8.0140234375
634445.3125,2352,8.01408854166667
634449.21875,2353,8.01415364583333
634453.125,2353,8.01421875
634457.03125,2353,8.01428385416667
634460.9375,2351,8.01434895833333
634464.84375,2353,8.0144140625
634468.75,2353,8.01447916666667
634472.65625,2354,8.01454427083333
634476.5625,2354,8.014609375
634480.46875,2354,8.01467447916667
634484.375,2355,8.01473958333333
634488.28125,2355,8.0148046875
634492.1875,2353,8.01486979166667
634496.09375,2354,8.01493489583333
634500,2357,8.015
634503.90625,2357,8.01506510416667
634507.8125,2356,8.01513020833333
634511.71875,2359,8.0151953125
634515.625,2360,8.01526041666667
634519.53125,2358,8.01532552083333
634523.4375,2356,8.015390625
634527.34375,2362,8.01545572916667
634531.25,2368,8.01552083333333
634535.15625,2373,8.0155859375
634539.0625,2378,8.01565104166667
634542.96875,2385,8.01571614583333
634546.875,2390,8.01578125
634550.78125,2389,8.01584635416667
634554.6875,2382,8.01591145833333
634558.59375,2376,8.0159765625
634562.5,2373,8.01604166666667
634566.40625,2371,8.01610677083333
634570.3125,2371,8.016171875
634574.21875,2370,8.01623697916667
634578.125,2371,8.01630208333333
634582.03125,2369,8.0163671875
634585.9375,2367,8.01643229166667
634589.84375,2368,8.01649739583333
634593.75,2368,8.0165625
634597.65625,2369,8.01662760416667
634601.5625,2370,8.01669270833333
634605.46875,2373,8.0167578125
634609.375,2373,8.01682291666667
634613.28125,2374,8.01688802083333
634617.1875,2371,8.016953125
634621.09375,2369,8.01701822916667
634625,2372,8.01708333333333
634628.90625,2398,8.0171484375
634632.8125,2459,8.01721354166667
634636.71875,2538,8.01727864583333
634640.625,2641,8.01734375
634644.53125,2764,8.01740885416667
634648.4375,2876,8.01747395833333
634652.34375,2947,8.0175390625
634656.25,3003,8.01760416666667
634660.15625,2990,8.01766927083333
634664.0625,2761,8.017734375
634667.96875,2433,8.01779947916667
634671.875,2152,8.01786458333333
634675.78125,2027,8.0179296875
634679.6875,1988,8.01799479166667
634683.59375,1978,8.01805989583333
634687.5,1996,8.018125
634691.40625,2050,8.01819010416667
634695.3125,2108,8.01825520833333
634699.21875,2167,8.0183203125
634703.125,2241,8.01838541666667
634707.03125,2294,8.01845052083333
634710.9375,2338,8.018515625
634714.84375,2365,8.01858072916667
634718.75,2375,8.01864583333333
634722.65625,2383,8.0187109375
634726.5625,2386,8.01877604166667
634730.46875,2393,8.01884114583333
634734.375,2398,8.01890625
634738.28125,2400,8.01897135416667
634742.1875,2403,8.01903645833333
634746.09375,2405,8.0191015625
634750,2410,8.01916666666667
634753.90625,2413,8.01923177083333
634757.8125,2415,8.019296875
634761.71875,2418,8.01936197916667
634765.625,2419,8.01942708333333
634769.53125,2422,8.0194921875
634773.4375,2426,8.01955729166667
634777.34375,2429,8.01962239583333
634781.25,2432,8.0196875
634785.15625,2432,8.01975260416667
634789.0625,2436,8.01981770833333
634792.96875,2440,8.0198828125
634796.875,2443,8.01994791666667
634800.78125,2447,8.02001302083333
634804.6875,2454,8.020078125
634808.59375,2457,8.02014322916667
634812.5,2462,8.02020833333333
634816.40625,2465,8.0202734375
634820.3125,2470,8.02033854166667
634824.21875,2475,8.02040364583333
634828.125,2481,8.02046875
634832.03125,2486,8.02053385416667
634835.9375,2491,8.02059895833333
634839.84375,2498,8.0206640625
634843.75,2506,8.02072916666667
634847.65625,2515,8.02079427083333
634851.5625,2523,8.020859375
634855.46875,2534,8.02092447916667
634859.375,2542,8.02098958333333
634863.28125,2555,8.0210546875
634867.1875,2565,8.02111979166667
634871.09375,2576,8.02118489583333
634875,2588,8.02125
634878.90625,2601,8.02131510416667
634882.8125,2610,8.02138020833333
634886.71875,2620,8.0214453125
634890.625,2629,8.02151041666667
634894.53125,2636,8.02157552083333
634898.4375,2643,8.021640625
634902.34375,2647,8.02170572916667
634906.25,2649,8.02177083333333
634910.15625,2650,8.0218359375
634914.0625,2651,8.02190104166667
634917.96875,2648,8.02196614583333
634921.875,2641,8.02203125
634925.78125,2635,8.02209635416667
634929.6875,2623,8.02216145833333
634933.59375,2609,8.0222265625
634937.5,2591,8.02229166666667
634941.40625,2572,8.02235677083333
634945.3125,2551,8.022421875
634949.21875,2528,8.02248697916667
634953.125,2505,8.02255208333333
634957.03125,2483,8.0226171875
634960.9375,2461,8.02268229166667
634964.84375,2441,8.02274739583333
634968.75,2424,8.0228125
634972.65625,2408,8.02287760416667
634976.5625,2393,8.02294270833333
634980.46875,2380,8.0230078125
634984.375,2369,8.02307291666667
634988.28125,2360,8.02313802083333
634992.1875,2352,8.023203125
634996.09375,2346,8.02326822916667
635000,2344,8.02333333333333
635003.90625,2344,8.0233984375
635007.8125,2335,8.02346354166667
635011.71875,2333,8.02352864583333
635015.625,2333,8.02359375
635019.53125,2333,8.02365885416667
635023.4375,2329,8.02372395833333
635027.34375,2329,8.0237890625
635031.25,2327,8.02385416666667
635035.15625,2328,8.02391927083333
635039.0625,2328,8.023984375
635042.96875,2328,8.02404947916667
635046.875,2328,8.02411458333333
635050.78125,2328,8.0241796875
635054.6875,2328,8.02424479166667
635058.59375,2331,8.02430989583333
635062.5,2332,8.024375
635066.40625,2334,8.02444010416667
635070.3125,2336,8.02450520833333
635074.21875,2339,8.0245703125
635078.125,2340,8.02463541666667
635082.03125,2342,8.02470052083333
635085.9375,2343,8.024765625
635089.84375,2345,8.02483072916667
635093.75,2348,8.02489583333333
635097.65625,2350,8.0249609375
635101.5625,2354,8.02502604166667
635105.46875,2355,8.02509114583333
635109.375,2357,8.02515625
635113.28125,2359,8.02522135416667
635117.1875,2359,8.02528645833333
635121.09375,2362,8.0253515625
635125,2363,8.02541666666667
635128.90625,2364,8.02548177083333
635132.8125,2364,8.025546875
635136.71875,2364,8.02561197916667
635140.625,2366,8.02567708333333
635144.53125,2366,8.0257421875
635148.4375,2367,8.02580729166667
635152.34375,2367,8.02587239583333
635156.25,2368,8.0259375
635160.15625,2367,8.02600260416667
635164.0625,2366,8.02606770833333
635167.96875,2364,8.0261328125
635171.875,2367,8.02619791666667
635175.78125,2364,8.02626302083333
635179.6875,2363,8.026328125
635183.59375,2361,8.02639322916667
635187.5,2359,8.02645833333333
635191.40625,2358,8.0265234375
635195.3125,2355,8.02658854166667
635199.21875,2355,8.02665364583333
635203.125,2354,8.02671875
635207.03125,2353,8.02678385416667
635210.9375,2352,8.02684895833333
635214.84375,2353,8.0269140625
635218.75,2356,8.02697916666667
635222.65625,2353,8.02704427083333
635226.5625,2351,8.027109375
635230.46875,2350,8.02717447916667
635234.375,2348,8.02723958333333
635238.28125,2347,8.0273046875
635242.1875,2348,8.02736979166667
635246.09375,2347,8.02743489583333
635250,2345,8.0275
635253.90625,2348,8.02756510416667
635257.8125,2349,8.02763020833333
635261.71875,2348,8.0276953125
635265.625,2347,8.02776041666667
635269.53125,2348,8.02782552083333
635273.4375,2349,8.027890625
635277.34375,2348,8.02795572916667
635281.25,2347,8.02802083333333
635285.15625,2348,8.0280859375
635289.0625,2347,8.02815104166667
635292.96875,2348,8.02821614583333
635296.875,2346,8.02828125
635300.78125,2347,8.02834635416667
635304.6875,2347,8.02841145833333
635308.59375,2346,8.0284765625
635312.5,2348,8.02854166666667
635316.40625,2348,8.02860677083333
635320.3125,2346,8.028671875
635324.21875,2347,8.02873697916667
635328.125,2348,8.02880208333333
635332.03125,2348,8.0288671875
635335.9375,2347,8.02893229166667
635339.84375,2347,8.02899739583333
635343.75,2346,8.0290625
635347.65625,2346,8.02912760416667
635351.5625,2344,8.02919270833333
635355.46875,2345,8.0292578125
635359.375,2347,8.02932291666667
635363.28125,2347,8.02938802083333
635367.1875,2348,8.029453125
635371.09375,2347,8.02951822916667
635375,2347,8.02958333333333
635378.90625,2347,8.0296484375
635382.8125,2349,8.02971354166667
635386.71875,2350,8.02977864583333
635390.625,2351,8.02984375
635394.53125,2353,8.02990885416667
635398.4375,2351,8.02997395833333
635402.34375,2351,8.0300390625
635406.25,2350,8.03010416666667
635410.15625,2350,8.03016927083333
635414.0625,2347,8.030234375
635417.96875,2350,8.03029947916667
635421.875,2351,8.03036458333333
635425.78125,2351,8.0304296875
635429.6875,2348,8.03049479166667
635433.59375,2352,8.03055989583333
635437.5,2352,8.030625
635441.40625,2352,8.03069010416667
635445.3125,2351,8.03075520833333
635449.21875,2355,8.0308203125
635453.125,2358,8.03088541666667
635457.03125,2362,8.03095052083333
635460.9375,2368,8.031015625
635464.84375,2375,8.03108072916667
635468.75,2379,8.03114583333333
635472.65625,2380,8.0312109375
635476.5625,2376,8.03127604166667
635480.46875,2370,8.03134114583333
635484.375,2366,8.03140625
635488.28125,2365,8.03147135416667
635492.1875,2363,8.03153645833333
635496.09375,2363,8.0316015625
635500,2362,8.03166666666667
635503.90625,2361,8.03173177083333
635507.8125,2360,8.031796875
635511.71875,2361,8.03186197916667
635515.625,2359,8.03192708333333
635519.53125,2360,8.0319921875
635523.4375,2359,8.03205729166667
635527.34375,2359,8.03212239583333
635531.25,2359,8.0321875
635535.15625,2359,8.03225260416667
635539.0625,2355,8.03231770833333
635542.96875,2353,8.0323828125
635546.875,2351,8.03244791666667
635550.78125,2363,8.03251302083333
635554.6875,2410,8.032578125
635558.59375,2482,8.03264322916667
635562.5,2571,8.03270833333333
635566.40625,2685,8.0327734375
635570.3125,2797,8.03283854166667
635574.21875,2873,8.03290364583333
635578.125,2928,8.03296875
635582.03125,2978,8.03303385416667
635585.9375,2826,8.03309895833333
635589.84375,2524,8.0331640625
635593.75,2230,8.03322916666667
635597.65625,2044,8.03329427083333
635601.5625,1983,8.033359375
635605.46875,1961,8.03342447916667
635609.375,1964,8.03348958333333
635613.28125,2006,8.0335546875
635617.1875,2067,8.03361979166667
635621.09375,2123,8.03368489583333
635625,2191,8.03375
635628.90625,2247,8.03381510416667
635632.8125,2290,8.03388020833333
635636.71875,2318,8.0339453125
635640.625,2333,8.03401041666667
635644.53125,2339,8.03407552083333
635648.4375,2344,8.034140625
635652.34375,2350,8.03420572916667
635656.25,2353,8.03427083333333
635660.15625,2357,8.0343359375
635664.0625,2360,8.03440104166667
635667.96875,2366,8.03446614583333
635671.875,2367,8.03453125
635675.78125,2369,8.03459635416667
635679.6875,2373,8.03466145833333
635683.59375,2373,8.0347265625
635687.5,2374,8.03479166666667
635691.40625,2375,8.03485677083333
635695.3125,2377,8.034921875
635699.21875,2381,8.03498697916667
635703.125,2380,8.03505208333333
635707.03125,2385,8.0351171875
635710.9375,2390,8.03518229166667
635714.84375,2394,8.03524739583333
635718.75,2396,8.0353125
635722.65625,2399,8.03537760416667
635726.5625,2403,8.03544270833333
635730.46875,2405,8.0355078125
635734.375,2409,8.03557291666667
635738.28125,2410,8.03563802083333
635742.1875,2415,8.035703125
635746.09375,2418,8.03576822916667
635750,2424,8.03583333333333
635753.90625,2430,8.0358984375
635757.8125,2436,8.03596354166667
635761.71875,2443,8.03602864583333
635765.625,2451,8.03609375
635769.53125,2460,8.03615885416667
635773.4375,2466,8.03622395833333
635777.34375,2474,8.0362890625
635781.25,2481,8.03635416666667
635785.15625,2491,8.03641927083333
635789.0625,2499,8.036484375
635792.96875,2512,8.03654947916667
635796.875,2522,8.03661458333333
635800.78125,2536,8.0366796875
635804.6875,2551,8.03674479166667
635808.59375,2558,8.03680989583333
635812.5,2567,8.036875
635816.40625,2575,8.03694010416667
635820.3125,2578,8.03700520833333
635824.21875,2580,8.0370703125
635828.125,2582,8.03713541666667
635832.03125,2585,8.03720052083333
635835.9375,2584,8.037265625
635839.84375,2582,8.03733072916667
635843.75,2581,8.03739583333333
635847.65625,2578,8.0374609375
635851.5625,2568,8.03752604166667
635855.46875,2558,8.03759114583333
635859.375,2544,8.03765625
635863.28125,2527,8.03772135416667
635867.1875,2510,8.03778645833333
635871.09375,2488,8.0378515625
635875,2467,8.03791666666667
635878.90625,2443,8.03798177083333
635882.8125,2421,8.038046875
635886.71875,2401,8.03811197916667
635890.625,2383,8.03817708333333
635894.53125,2369,8.0382421875
635898.4375,2354,8.03830729166667
635902.34375,2335,8.03837239583333
635906.25,2321,8.0384375
635910.15625,2310,8.03850260416667
635914.0625,2307,8.03856770833333
635917.96875,2301,8.0386328125
635921.875,2290,8.03869791666667
635925.78125,2282,8.03876302083333
635929.6875,2278,8.038828125
635933.59375,2273,8.03889322916667
635937.5,2273,8.03895833333333
635941.40625,2273,8.0390234375
635945.3125,2271,8.03908854166667
635949.21875,2269,8.03915364583333
635953.125,2268,8.03921875
635957.03125,2270,8.03928385416667
635960.9375,2267,8.03934895833333
635964.84375,2264,8.0394140625
635968.75,2265,8.03947916666667
635972.65625,2268,8.03954427083333
635976.5625,2268,8.039609375
635980.46875,2272,8.03967447916667
635984.375,2264,8.03973958333333
635988.28125,2264,8.0398046875
635992.1875,2265,8.03986979166667
635996.09375,2268,8.03993489583333
636000,2272,8.04
636003.90625,2271,8.04006510416667
636007.8125,2273,8.04013020833333
636011.71875,2275,8.0401953125
636015.625,2276,8.04026041666667
636019.53125,2277,8.04032552083333
636023.4375,2280,8.040390625
636027.34375,2283,8.04045572916667
636031.25,2285,8.04052083333333
636035.15625,2287,8.0405859375
636039.0625,2281,8.04065104166667
636042.96875,2284,8.04071614583333
636046.875,2288,8.04078125
636050.78125,2290,8.04084635416667
636054.6875,2294,8.04091145833333
636058.59375,2293,8.0409765625
636062.5,2290,8.04104166666667
636066.40625,2292,8.04110677083333
636070.3125,2289,8.041171875
636074.21875,2284,8.04123697916667
636078.125,2282,8.04130208333333
636082.03125,2287,8.0413671875
636085.9375,2285,8.04143229166667
636089.84375,2281,8.04149739583333
636093.75,2281,8.0415625
636097.65625,2279,8.04162760416667
636101.5625,2282,8.04169270833333
636105.46875,2280,8.0417578125
636109.375,2278,8.04182291666667
636113.28125,2273,8.04188802083333
636117.1875,2269,8.041953125
636121.09375,2265,8.04201822916667
636125,2262,8.04208333333333
636128.90625,2265,8.0421484375
636132.8125,2267,8.04221354166667
636136.71875,2263,8.04227864583333
636140.625,2264,8.04234375
636144.53125,2264,8.04240885416667
636148.4375,2259,8.04247395833333
636152.34375,2260,8.0425390625
636156.25,2264,8.04260416666667
636160.15625,2266,8.04266927083333
636164.0625,2261,8.042734375
636167.96875,2255,8.04279947916667
636171.875,2252,8.04286458333333
636175.78125,2258,8.0429296875
636179.6875,2260,8.04299479166667
636183.59375,2262,8.04305989583333
636187.5,2259,8.043125
636191.40625,2252,8.04319010416667
636195.3125,2254,8.04325520833333
636199.21875,2256,8.0433203125
636203.125,2255,8.04338541666667
636207.03125,2255,8.04345052083333
636210.9375,2254,8.043515625
636214.84375,2253,8.04358072916667
636218.75,2250,8.04364583333333
636222.65625,2247,8.0437109375
636226.5625,2244,8.04377604166667
636230.46875,2249,8.04384114583333
636234.375,2251,8.04390625
636238.28125,2253,8.04397135416667
636242.1875,2250,8.04403645833333
636246.09375,2247,8.0441015625
636250,2247,8.04416666666667
636253.90625,2249,8.04423177083333
636257.8125,2247,8.044296875
636261.71875,2244,8.04436197916667
636265.625,2243,8.04442708333333
636269.53125,2241,8.0444921875
636273.4375,2243,8.04455729166667
636277.34375,2245,8.04462239583333
636281.25,2247,8.0446875
636285.15625,2243,8.04475260416667
636289.0625,2238,8.04481770833333
636292.96875,2234,8.0448828125
636296.875,2240,8.04494791666667
636300.78125,2241,8.04501302083333
636304.6875,2236,8.045078125
636308.59375,2240,8.04514322916667
636312.5,2251,8.04520833333333
636316.40625,2256,8.0452734375
636320.3125,2252,8.04533854166667
636324.21875,2246,8.04540364583333
636328.125,2245,8.04546875
636332.03125,2244,8.04553385416667
636335.9375,2244,8.04559895833333
636339.84375,2245,8.0456640625
636343.75,2251,8.04572916666667
636347.65625,2251,8.04579427083333
636351.5625,2251,8.045859375
636355.46875,2249,8.04592447916667
636359.375,2255,8.04598958333333
636363.28125,2259,8.0460546875
636367.1875,2258,8.04611979166667
636371.09375,2263,8.04618489583333
636375,2269,8.04625
636378.90625,2272,8.04631510416667
636382.8125,2268,8.04638020833333
636386.71875,2270,8.0464453125
636390.625,2264,8.04651041666667
636394.53125,2261,8.04657552083333
636398.4375,2256,8.046640625
636402.34375,2254,8.04670572916667
636406.25,2255,8.04677083333333
636410.15625,2255,8.0468359375
636414.0625,2255,8.04690104166667
636417.96875,2258,8.04696614583333
636421.875,2262,8.04703125
636425.78125,2258,8.04709635416667
636429.6875,2250,8.04716145833333
636433.59375,2249,8.0472265625
636437.5,2249,8.04729166666667
636441.40625,2251,8.04735677083333
636445.3125,2250,8.047421875
636449.21875,2252,8.04748697916667
636453.125,2247,8.04755208333333
636457.03125,2249,8.0476171875
636460.9375,2283,8.04768229166667
636464.84375,2350,8.04774739583333
636468.75,2431,8.0478125
636472.65625,2544,8.04787760416667
636476.5625,2675,8.04794270833333
636480.46875,2786,8.0480078125
636484.375,2843,8.04807291666667
636488.28125,2888,8.04813802083333
636492.1875,2829,8.048203125
636496.09375,2581,8.04826822916667
636500,2252,8.04833333333333
636503.90625,1967,8.0483984375
636507.8125,1864,8.04846354166667
636511.71875,1825,8.04852864583333
636515.625,1809,8.04859375
636519.53125,1827,8.04865885416667
636523.4375,1865,8.04872395833333
636527.34375,1917,8.0487890625
636531.25,1993,8.04885416666667
636535.15625,2087,8.04891927083333
636539.0625,2145,8.048984375
636542.96875,2196,8.04904947916667
636546.875,2220,8.04911458333333
636550.78125,2231,8.0491796875
636554.6875,2239,8.04924479166667
636558.59375,2247,8.04930989583333
636562.5,2258,8.049375
636566.40625,2264,8.04944010416667
636570.3125,2266,8.04950520833333
636574.21875,2272,8.0495703125
636578.125,2274,8.04963541666667
636582.03125,2276,8.04970052083333
636585.9375,2274,8.049765625
636589.84375,2279,8.04983072916667
636593.75,2286,8.04989583333333
636597.65625,2294,8.0499609375
636601.5625,2291,8.05002604166667
636605.46875,2288,8.05009114583333
636609.375,2295,8.05015625
636613.28125,2295,8.05022135416667
636617.1875,2292,8.05028645833333
636621.09375,2297,8.0503515625
636625,2306,8.05041666666667
636628.90625,2312,8.05048177083333
636632.8125,2318,8.050546875
636636.71875,2322,8.05061197916667
636640.625,2322,8.05067708333333
636644.53125,2328,8.0507421875
636648.4375,2334,8.05080729166667
636652.34375,2338,8.05087239583333
636656.25,2337,8.0509375
636660.15625,2346,8.05100260416667
636664.0625,2352,8.05106770833333
636667.96875,2358,8.0511328125
636671.875,2362,8.05119791666667
636675.78125,2367,8.05126302083333
636679.6875,2372,8.051328125
636683.59375,2380,8.05139322916667
636687.5,2392,8.05145833333333
636691.40625,2407,8.0515234375
636695.3125,2424,8.05158854166667
636699.21875,2435,8.05165364583333
636703.125,2447,8.05171875
636707.03125,2454,8.05178385416667
636710.9375,2467,8.05184895833333
636714.84375,2478,8.0519140625
636718.75,2484,8.05197916666667
636722.65625,2493,8.05204427083333
636726.5625,2503,8.052109375
636730.46875,2511,8.05217447916667
636734.375,2507,8.05223958333333
636738.28125,2510,8.0523046875
636742.1875,2510,8.05236979166667
636746.09375,2515,8.05243489583333
636750,2518,8.0525
636753.90625,2515,8.05256510416667
636757.8125,2508,8.05263020833333
636761.71875,2507,8.0526953125
636765.625,2488,8.05276041666667
636769.53125,2467,8.05282552083333
636773.4375,2441,8.052890625
636777.34375,2415,8.05295572916667
636781.25,2391,8.05302083333333
636785.15625,2370,8.0530859375
636789.0625,2349,8.05315104166667
636792.96875,2330,8.05321614583333
636796.875,2306,8.05328125
636800.78125,2286,8.05334635416667
636804.6875,2267,8.05341145833333
636808.59375,2255,8.0534765625
636812.5,2245,8.05354166666667
636816.40625,2232,8.05360677083333
636820.3125,2225,8.053671875
636824.21875,2219,8.05373697916667
636828.125,2217,8.05380208333333
636832.03125,2206,8.0538671875
636835.9375,2196,8.05393229166667
636839.84375,2186,8.05399739583333
636843.75,2181,8.0540625
636847.65625,2179,8.05412760416667
636851.5625,2184,8.05419270833333
636855.46875,2184,8.0542578125
636859.375,2178,8.05432291666667
636863.28125,2181,8.05438802083333
636867.1875,2180,8.054453125
636871.09375,2174,8.05451822916667
636875,2175,8.05458333333333
636878.90625,2179,8.0546484375
636882.8125,2188,8.05471354166667
636886.71875,2192,8.05477864583333
636890.625,2192,8.05484375
636894.53125,2187,8.05490885416667
636898.4375,2180,8.05497395833333
636902.34375,2190,8.0550390625
636906.25,2194,8.05510416666667
636910.15625,2195,8.05516927083333
636914.0625,2198,8.055234375
636917.96875,2199,8.05529947916667
636921.875,2201,8.05536458333333
636925.78125,2209,8.0554296875
636929.6875,2209,8.05549479166667
636933.59375,2214,8.05555989583333
636937.5,2218,8.055625
636941.40625,2225,8.05569010416667
636945.3125,2227,8.05575520833333
636949.21875,2230,8.0558203125
636953.125,2230,8.05588541666667
636957.03125,2230,8.05595052083333
636960.9375,2232,8.056015625
636964.84375,2232,8.05608072916667
636968.75,2228,8.05614583333333
636972.65625,2229,8.0562109375
636976.5625,2232,8.05627604166667
636980.46875,2232,8.05634114583333
636984.375,2229,8.05640625
636988.28125,2228,8.05647135416667
636992.1875,2228,8.05653645833333
636996.09375,2223,8.0566015625
637000,2219,8.05666666666667
637003.90625,2218,8.05673177083333
637007.8125,2223,8.056796875
637011.71875,2223,8.05686197916667
637015.625,2221,8.05692708333333
637019.53125,2224,8.0569921875
637023.4375,2227,8.05705729166667
637027.34375,2224,8.05712239583333
637031.25,2218,8.0571875
637035.15625,2219,8.05725260416667
637039.0625,2215,8.05731770833333
637042.96875,2216,8.0573828125
637046.875,2216,8.05744791666667
637050.78125,2212,8.05751302083333
637054.6875,2209,8.057578125
637058.59375,2211,8.05764322916667
637062.5,2213,8.05770833333333
637066.40625,2215,8.0577734375
637070.3125,2216,8.05783854166667
637074.21875,2214,8.05790364583333
637078.125,2210,8.05796875
637082.03125,2210,8.05803385416667
637085.9375,2215,8.05809895833333
637089.84375,2217,8.0581640625
637093.75,2224,8.05822916666667
637097.65625,2225,8.05829427083333
637101.5625,2225,8.058359375
637105.46875,2219,8.05842447916667
637109.375,2216,8.05848958333333
637113.28125,2218,8.0585546875
637117.1875,2220,8.05861979166667
637121.09375,2225,8.05868489583333
637125,2224,8.05875
637128.90625,2218,8.05881510416667
637132.8125,2223,8.05888020833333
637136.71875,2233,8.0589453125
637140.625,2232,8.05901041666667
637144.53125,2227,8.05907552083333
637148.4375,2223,8.059140625
637152.34375,2225,8.05920572916667
637156.25,2228,8.05927083333333
637160.15625,2228,8.0593359375
637164.0625,2229,8.05940104166667
637167.96875,2231,8.05946614583333
637171.875,2231,8.05953125
637175.78125,2237,8.05959635416667
637179.6875,2243,8.05966145833333
637183.59375,2239,8.0597265625
637187.5,2236,8.05979166666667
637191.40625,2240,8.05985677083333
637195.3125,2239,8.059921875
637199.21875,2239,8.05998697916667
637203.125,2243,8.06005208333333
637207.03125,2250,8.0601171875
637210.9375,2252,8.06018229166667
637214.84375,2252,8.06024739583333
637218.75,2257,8.0603125
637222.65625,2255,8.06037760416667
637226.5625,2250,8.06044270833333
637230.46875,2250,8.0605078125
637234.375,2255,8.06057291666667
637238.28125,2263,8.06063802083333
637242.1875,2267,8.060703125
637246.09375,2270,8.06076822916667
637250,2277,8.06083333333333
637253.90625,2279,8.0608984375
637257.8125,2273,8.06096354166667
637261.71875,2269,8.06102864583333
637265.625,2272,8.06109375
637269.53125,2283,8.06115885416667
637273.4375,2291,8.06122395833333
637277.34375,2302,8.0612890625
637281.25,2312,8.06135416666667
637285.15625,2317,8.06141927083333
637289.0625,2313,8.061484375
637292.96875,2311,8.06154947916667
637296.875,2303,8.06161458333333
637300.78125,2303,8.0616796875
637304.6875,2303,8.06174479166667
637308.59375,2301,8.06180989583333
637312.5,2306,8.061875
637316.40625,2306,8.06194010416667
637320.3125,2302,8.06200520833333
637324.21875,2301,8.0620703125
637328.125,2302,8.06213541666667
637332.03125,2302,8.06220052083333
637335.9375,2306,8.062265625
637339.84375,2306,8.06233072916667
637343.75,2310,8.06239583333333
637347.65625,2311,8.0624609375
637351.5625,2310,8.06252604166667
637355.46875,2307,8.06259114583333
637359.375,2307,8.06265625
637363.28125,2326,8.06272135416667
637367.1875,2383,8.06278645833333
637371.09375,2458,8.0628515625
637375,2562,8.06291666666667
637378.90625,2692,8.06298177083333
637382.8125,2826,8.063046875
637386.71875,2905,8.06311197916667
637390.625,2949,8.06317708333333
637394.53125,2990,8.0632421875
637398.4375,2828,8.06330729166667
637402.34375,2506,8.06337239583333
637406.25,2168,8.0634375
637410.15625,1951,8.06350260416667
637414.0625,1898,8.06356770833333
637417.96875,1864,8.0636328125
637421.875,1863,8.06369791666667
637425.78125,1893,8.06376302083333
637429.6875,1955,8.063828125
637433.59375,2025,8.06389322916667
637437.5,2109,8.06395833333333
637441.40625,2194,8.0640234375
637445.3125,2255,8.06408854166667
637449.21875,2294,8.06415364583333
637453.125,2314,8.06421875
637457.03125,2328,8.06428385416667
637460.9375,2332,8.06434895833333
637464.84375,2341,8.0644140625
637468.75,2346,8.06447916666667
637472.65625,2355,8.06454427083333
637476.5625,2362,8.064609375
637480.46875,2363,8.06467447916667
637484.375,2361,8.06473958333333
637488.28125,2368,8.0648046875
637492.1875,2374,8.06486979166667
637496.09375,2378,8.06493489583333
637500,2384,8.065
637503.90625,2384,8.06506510416667
637507.8125,2384,8.06513020833333
637511.71875,2386,8.0651953125
637515.625,2391,8.06526041666667
637519.53125,2399,8.06532552083333
637523.4375,2409,8.065390625
637527.34375,2412,8.06545572916667
637531.25,2412,8.06552083333333
637535.15625,2415,8.0655859375
637539.0625,2417,8.06565104166667
637542.96875,2419,8.06571614583333
637546.875,2425,8.06578125
637550.78125,2435,8.06584635416667
637554.6875,2439,8.06591145833333
637558.59375,2447,8.0659765625
637562.5,2450,8.06604166666667
637566.40625,2459,8.06610677083333
637570.3125,2463,8.066171875
637574.21875,2474,8.06623697916667
637578.125,2480,8.06630208333333
637582.03125,2484,8.0663671875
637585.9375,2488,8.06643229166667
637589.84375,2500,8.06649739583333
637593.75,2514,8.0665625
637597.65625,2525,8.06662760416667
637601.5625,2536,8.06669270833333
637605.46875,2548,8.0667578125
637609.375,2563,8.06682291666667
637613.28125,2574,8.06688802083333
637617.1875,2591,8.066953125
637621.09375,2599,8.06701822916667
637625,2607,8.06708333333333
637628.90625,2614,8.0671484375
637632.8125,2625,8.06721354166667
637636.71875,2632,8.06727864583333
637640.625,2636,8.06734375
637644.53125,2637,8.06740885416667
637648.4375,2640,8.06747395833333
637652.34375,2638,8.0675390625
637656.25,2634,8.06760416666667
637660.15625,2624,8.06766927083333
637664.0625,2614,8.067734375
637667.96875,2603,8.06779947916667
637671.875,2587,8.06786458333333
637675.78125,2567,8.0679296875
637679.6875,2548,8.06799479166667
637683.59375,2524,8.06805989583333
637687.5,2493,8.068125
637691.40625,2471,8.06819010416667
637695.3125,2450,8.06825520833333
637699.21875,2431,8.0683203125
637703.125,2413,8.06838541666667
637707.03125,2395,8.06845052083333
637710.9375,2378,8.068515625
637714.84375,2368,8.06858072916667
637718.75,2351,8.06864583333333
637722.65625,2334,8.0687109375
637726.5625,2328,8.06877604166667
637730.46875,2326,8.06884114583333
637734.375,2319,8.06890625
637738.28125,2317,8.06897135416667
637742.1875,2316,8.06903645833333
637746.09375,2313,8.0691015625
637750,2311,8.06916666666667
637753.90625,2308,8.06923177083333
637757.8125,2306,8.069296875
637761.71875,2306,8.06936197916667
637765.625,2306,8.06942708333333
637769.53125,2302,8.0694921875
637773.4375,2301,8.06955729166667
637777.34375,2299,8.06962239583333
637781.25,2305,8.0696875
637785.15625,2306,8.06975260416667
637789.0625,2306,8.06981770833333
637792.96875,2307,8.0698828125
637796.875,2307,8.06994791666667
637800.78125,2312,8.07001302083333
637804.6875,2315,8.070078125
637808.59375,2318,8.07014322916667
637812.5,2319,8.07020833333333
637816.40625,2320,8.0702734375
637820.3125,2321,8.07033854166667
637824.21875,2319,8.07040364583333
637828.125,2322,8.07046875
637832.03125,2331,8.07053385416667
637835.9375,2337,8.07059895833333
637839.84375,2340,8.0706640625
637843.75,2341,8.07072916666667
637847.65625,2350,8.07079427083333
637851.5625,2354,8.070859375
637855.46875,2354,8.07092447916667
637859.375,2352,8.07098958333333
637863.28125,2354,8.0710546875
637867.1875,2356,8.07111979166667
637871.09375,2355,8.07118489583333
637875,2354,8.07125
637878.90625,2352,8.07131510416667
637882.8125,2355,8.07138020833333
637886.71875,2360,8.0714453125
637890.625,2362,8.07151041666667
637894.53125,2362,8.07157552083333
637898.4375,2361,8.071640625
637902.34375,2358,8.07170572916667
637906.25,2353,8.07177083333333
637910.15625,2350,8.0718359375
637914.0625,2347,8.07190104166667
637917.96875,2350,8.07196614583333
637921.875,2349,8.07203125
637925.78125,2351,8.07209635416667
637929.6875,2350,8.07216145833333
637933.59375,2353,8.0722265625
637937.5,2352,8.07229166666667
637941.40625,2351,8.07235677083333
637945.3125,2350,8.072421875
637949.21875,2347,8.07248697916667
637953.125,2345,8.07255208333333
637957.03125,2344,8.0726171875
637960.9375,2345,8.07268229166667
637964.84375,2345,8.07274739583333
637968.75,2346,8.0728125
637972.65625,2345,8.07287760416667
637976.5625,2348,8.07294270833333
637980.46875,2353,8.0730078125
637984.375,2353,8.07307291666667
637988.28125,2351,8.07313802083333
637992.1875,2349,8.073203125
637996.09375,2349,8.07326822916667
638000,2347,8.07333333333333
638003.90625,2345,8.0733984375
638007.8125,2347,8.07346354166667
638011.71875,2349,8.07352864583333
638015.625,2347,8.07359375
638019.53125,2347,8.07365885416667
638023.4375,2349,8.07372395833333
638027.34375,2347,8.0737890625
638031.25,2346,8.07385416666667
638035.15625,2345,8.07391927083333
638039.0625,2346,8.073984375
638042.96875,2343,8.07404947916667
638046.875,2345,8.07411458333333
638050.78125,2347,8.0741796875
638054.6875,2350,8.07424479166667
638058.59375,2348,8.07430989583333
638062.5,2348,8.074375
638066.40625,2348,8.07444010416667
638070.3125,2350,8.07450520833333
638074.21875,2349,8.0745703125
638078.125,2350,8.07463541666667
638082.03125,2351,8.07470052083333
638085.9375,2354,8.074765625
638089.84375,2353,8.07483072916667
638093.75,2357,8.07489583333333
638097.65625,2361,8.0749609375
638101.5625,2358,8.07502604166667
638105.46875,2355,8.07509114583333
638109.375,2354,8.07515625
638113.28125,2353,8.07522135416667
638117.1875,2354,8.07528645833333
638121.09375,2354,8.0753515625
638125,2357,8.07541666666667
638128.90625,2354,8.07548177083333
638132.8125,2358,8.075546875
638136.71875,2360,8.07561197916667
638140.625,2363,8.07567708333333
638144.53125,2364,8.0757421875
638148.4375,2361,8.07580729166667
638152.34375,2361,8.07587239583333
638156.25,2360,8.0759375
638160.15625,2362,8.07600260416667
638164.0625,2363,8.07606770833333
638167.96875,2368,8.0761328125
638171.875,2372,8.07619791666667
638175.78125,2375,8.07626302083333
638179.6875,2377,8.076328125
638183.59375,2376,8.07639322916667
638187.5,2375,8.07645833333333
638191.40625,2378,8.0765234375
638195.3125,2385,8.07658854166667
638199.21875,2389,8.07665364583333
638203.125,2394,8.07671875
638207.03125,2404,8.07678385416667
638210.9375,2407,8.07684895833333
638214.84375,2406,8.0769140625
638218.75,2401,8.07697916666667
638222.65625,2393,8.07704427083333
638226.5625,2386,8.077109375
638230.46875,2386,8.07717447916667
638234.375,2384,8.07723958333333
638238.28125,2386,8.0773046875
638242.1875,2390,8.07736979166667
638246.09375,2386,8.07743489583333
638250,2384,8.0775
638253.90625,2386,8.07756510416667
638257.8125,2385,8.07763020833333
638261.71875,2386,8.0776953125
638265.625,2387,8.07776041666667
638269.53125,2388,8.07782552083333
638273.4375,2388,8.077890625
638277.34375,2391,8.07795572916667
638281.25,2391,8.07802083333333
638285.15625,2387,8.0780859375
638289.0625,2391,8.07815104166667
638292.96875,2429,8.07821614583333
638296.875,2498,8.07828125
638300.78125,2590,8.07834635416667
638304.6875,2706,8.07841145833333
638308.59375,2837,8.0784765625
638312.5,2935,8.07854166666667
638316.40625,2996,8.07860677083333
638320.3125,3051,8.078671875
638324.21875,2964,8.07873697916667
638328.125,2684,8.07880208333333
638332.03125,2357,8.0788671875
638335.9375,2098,8.07893229166667
638339.84375,2008,8.07899739583333
638343.75,1976,8.0790625
638347.65625,1973,8.07912760416667
638351.5625,2002,8.07919270833333
638355.46875,2066,8.0792578125
638359.375,2123,8.07932291666667
638363.28125,2190,8.07938802083333
638367.1875,2262,8.079453125
638371.09375,2314,8.07951822916667
638375,2352,8.07958333333333
638378.90625,2375,8.0796484375
638382.8125,2384,8.07971354166667
638386.71875,2390,8.07977864583333
638390.625,2392,8.07984375
638394.53125,2400,8.07990885416667
638398.4375,2405,8.07997395833333
638402.34375,2410,8.0800390625
638406.25,2416,8.08010416666667
638410.15625,2423,8.08016927083333
638414.0625,2423,8.080234375
638417.96875,2423,8.08029947916667
638421.875,2423,8.08036458333333
638425.78125,2426,8.0804296875
638429.6875,2429,8.08049479166667
638433.59375,2430,8.08055989583333
638437.5,2430,8.080625
638441.40625,2434,8.08069010416667
638445.3125,2438,8.08075520833333
638449.21875,2439,8.0808203125
638453.125,2444,8.08088541666667
638457.03125,2449,8.08095052083333
638460.9375,2450,8.081015625
638464.84375,2454,8.08108072916667
638468.75,2456,8.08114583333333
638472.65625,2461,8.0812109375
638476.5625,2464,8.08127604166667
638480.46875,2470,8.08134114583333
638484.375,2475,8.08140625
638488.28125,2479,8.08147135416667
638492.1875,2484,8.08153645833333
638496.09375,2490,8.0816015625
638500,2495,8.08166666666667
638503.90625,2501,8.08173177083333
638507.8125,2511,8.081796875
638511.71875,2520,8.08186197916667
638515.625,2528,8.08192708333333
638519.53125,2539,8.0819921875
638523.4375,2547,8.08205729166667
638527.34375,2559,8.08212239583333
638531.25,2566,8.0821875
638535.15625,2582,8.08225260416667
638539.0625,2594,8.08231770833333
638542.96875,2604,8.0823828125
638546.875,2614,8.08244791666667
638550.78125,2623,8.08251302083333
638554.6875,2632,8.082578125
638558.59375,2639,8.08264322916667
638562.5,2645,8.08270833333333
638566.40625,2650,8.0827734375
638570.3125,2652,8.08283854166667
638574.21875,2657,8.08290364583333
638578.125,2657,8.08296875
638582.03125,2655,8.08303385416667
638585.9375,2651,8.08309895833333
638589.84375,2641,8.0831640625
638593.75,2630,8.08322916666667
638597.65625,2615,8.08329427083333
638601.5625,2598,8.083359375
638605.46875,2577,8.08342447916667
638609.375,2553,8.08348958333333
638613.28125,2530,8.0835546875
638617.1875,2507,8.08361979166667
638621.09375,2486,8.08368489583333
638625,2462,8.08375
638628.90625,2443,8.08381510416667
638632.8125,2424,8.08388020833333
638636.71875,2410,8.0839453125
638640.625,2393,8.08401041666667
638644.53125,2382,8.08407552083333
638648.4375,2371,8.084140625
638652.34375,2363,8.08420572916667
638656.25,2356,8.08427083333333
638660.15625,2352,8.0843359375
638664.0625,2345,8.08440104166667
638667.96875,2341,8.08446614583333
638671.875,2335,8.08453125
638675.78125,2335,8.08459635416667
638679.6875,2332,8.08466145833333
638683.59375,2333,8.0847265625
638687.5,2332,8.08479166666667
638691.40625,2331,8.08485677083333
638695.3125,2331,8.084921875
638699.21875,2332,8.08498697916667
638703.125,2331,8.08505208333333
638707.03125,2331,8.0851171875
638710.9375,2330,8.08518229166667
638714.84375,2332,8.08524739583333
638718.75,2331,8.0853125
638722.65625,2334,8.08537760416667
638726.5625,2336,8.08544270833333
638730.46875,2337,8.0855078125
638734.375,2337,8.08557291666667
638738.28125,2341,8.08563802083333
638742.1875,2344,8.085703125
638746.09375,2347,8.08576822916667
638750,2349,8.08583333333333
638753.90625,2352,8.0858984375
638757.8125,2355,8.08596354166667
638761.71875,2359,8.08602864583333
638765.625,2361,8.08609375
638769.53125,2366,8.08615885416667
638773.4375,2367,8.08622395833333
638777.34375,2367,8.0862890625
638781.25,2371,8.08635416666667
638785.15625,2372,8.08641927083333
638789.0625,2374,8.086484375
638792.96875,2374,8.08654947916667
638796.875,2374,8.08661458333333
638800.78125,2376,8.0866796875
638804.6875,2378,8.08674479166667
638808.59375,2379,8.08680989583333
638812.5,2380,8.086875
638816.40625,2380,8.08694010416667
638820.3125,2381,8.08700520833333
638824.21875,2380,8.0870703125
638828.125,2378,8.08713541666667
638832.03125,2377,8.08720052083333
638835.9375,2376,8.087265625
638839.84375,2376,8.08733072916667
638843.75,2375,8.08739583333333
638847.65625,2374,8.0874609375
638851.5625,2373,8.08752604166667
638855.46875,2373,8.08759114583333
638859.375,2372,8.08765625
638863.28125,2371,8.08772135416667
638867.1875,2370,8.08778645833333
638871.09375,2368,8.0878515625
638875,2369,8.08791666666667
638878.90625,2367,8.08798177083333
638882.8125,2367,8.088046875
638886.71875,2368,8.08811197916667
638890.625,2365,8.08817708333333
638894.53125,2368,8.0882421875
638898.4375,2366,8.08830729166667
638902.34375,2364,8.08837239583333
638906.25,2362,8.0884375
638910.15625,2363,8.08850260416667
638914.0625,2364,8.08856770833333
638917.96875,2363,8.0886328125
638921.875,2364,8.08869791666667
638925.78125,2365,8.08876302083333
638929.6875,2364,8.088828125
638933.59375,2364,8.08889322916667
638937.5,2364,8.08895833333333
638941.40625,2364,8.0890234375
638945.3125,2363,8.08908854166667
638949.21875,2363,8.08915364583333
638953.125,2364,8.08921875
638957.03125,2365,8.08928385416667
638960.9375,2366,8.08934895833333
638964.84375,2366,8.0894140625
638968.75,2366,8.08947916666667
638972.65625,2368,8.08954427083333
638976.5625,2364,8.089609375
638980.46875,2365,8.08967447916667
638984.375,2366,8.08973958333333
638988.28125,2365,8.0898046875
638992.1875,2366,8.08986979166667
638996.09375,2368,8.08993489583333
639000,2366,8.09
639003.90625,2367,8.09006510416667
639007.8125,2370,8.09013020833333
639011.71875,2365,8.0901953125
639015.625,2371,8.09026041666667
639019.53125,2370,8.09032552083333
639023.4375,2370,8.090390625
639027.34375,2371,8.09045572916667
639031.25,2370,8.09052083333333
639035.15625,2373,8.0905859375
639039.0625,2371,8.09065104166667
639042.96875,2370,8.09071614583333
639046.875,2372,8.09078125
639050.78125,2370,8.09084635416667
639054.6875,2372,8.09091145833333
639058.59375,2371,8.0909765625
639062.5,2371,8.09104166666667
639066.40625,2373,8.09110677083333
639070.3125,2372,8.091171875
639074.21875,2374,8.09123697916667
639078.125,2373,8.09130208333333
639082.03125,2376,8.0913671875
639085.9375,2376,8.09143229166667
639089.84375,2375,8.09149739583333
639093.75,2375,8.0915625
639097.65625,2374,8.09162760416667
639101.5625,2374,8.09169270833333
639105.46875,2378,8.0917578125
639109.375,2378,8.09182291666667
639113.28125,2378,8.09188802083333
639117.1875,2379,8.091953125
639121.09375,2379,8.09201822916667
639125,2381,8.09208333333333
639128.90625,2381,8.0921484375
639132.8125,2380,8.09221354166667
639136.71875,2382,8.09227864583333
639140.625,2382,8.09234375
639144.53125,2383,8.09240885416667
639148.4375,2386,8.09247395833333
639152.34375,2387,8.0925390625
639156.25,2387,8.09260416666667
639160.15625,2386,8.09266927083333
639164.0625,2386,8.092734375
639167.96875,2385,8.09279947916667
639171.875,2385,8.09286458333333
639175.78125,2382,8.0929296875
639179.6875,2384,8.09299479166667
639183.59375,2385,8.09305989583333
639187.5,2387,8.093125
639191.40625,2388,8.09319010416667
639195.3125,2391,8.09325520833333
639199.21875,2394,8.0933203125
639203.125,2392,8.09338541666667
639207.03125,2391,8.09345052083333
639210.9375,2395,8.093515625
639214.84375,2402,8.09358072916667
639218.75,2404,8.09364583333333
639222.65625,2410,8.0937109375
639226.5625,2416,8.09377604166667
639230.46875,2419,8.09384114583333
639234.375,2419,8.09390625
639238.28125,2412,8.09397135416667
639242.1875,2407,8.09403645833333
639246.09375,2405,8.0941015625
639250,2403,8.09416666666667
639253.90625,2400,8.09423177083333
639257.8125,2397,8.094296875
639261.71875,2398,8.09436197916667
639265.625,2397,8.09442708333333
639269.53125,2395,8.0944921875
639273.4375,2395,8.09455729166667
639277.34375,2393,8.09462239583333
639281.25,2392,8.0946875
639285.15625,2393,8.09475260416667
639289.0625,2393,8.09481770833333
639292.96875,2393,8.0948828125
639296.875,2392,8.09494791666667
639300.78125,2393,8.09501302083333
639304.6875,2390,8.095078125
639308.59375,2390,8.09514322916667
639312.5,2407,8.09520833333333
639316.40625,2460,8.0952734375
639320.3125,2534,8.09533854166667
639324.21875,2631,8.09540364583333
639328.125,2745,8.09546875
639332.03125,2854,8.09553385416667
639335.9375,2928,8.09559895833333
639339.84375,2986,8.0956640625
639343.75,3007,8.09572916666667
639347.65625,2818,8.09579427083333
639351.5625,2500,8.095859375
639355.46875,2223,8.09592447916667
639359.375,2071,8.09598958333333
639363.28125,2026,8.0960546875
639367.1875,2014,8.09611979166667
639371.09375,2025,8.09618489583333
639375,2077,8.09625
639378.90625,2134,8.09631510416667
639382.8125,2188,8.09638020833333
639386.71875,2255,8.0964453125
639390.625,2305,8.09651041666667
639394.53125,2347,8.09657552083333
639398.4375,2373,8.096640625
639402.34375,2386,8.09670572916667
639406.25,2391,8.09677083333333
639410.15625,2395,8.0968359375
639414.0625,2401,8.09690104166667
639417.96875,2406,8.09696614583333
639421.875,2411,8.09703125
639425.78125,2415,8.09709635416667
639429.6875,2418,8.09716145833333
639433.59375,2420,8.0972265625
639437.5,2421,8.09729166666667
639441.40625,2424,8.09735677083333
639445.3125,2426,8.097421875
639449.21875,2428,8.09748697916667
639453.125,2432,8.09755208333333
639457.03125,2433,8.0976171875
639460.9375,2434,8.09768229166667
639464.84375,2439,8.09774739583333
639468.75,2441,8.0978125
639472.65625,2442,8.09787760416667
639476.5625,2443,8.09794270833333
639480.46875,2448,8.0980078125
639484.375,2451,8.09807291666667
639488.28125,2455,8.09813802083333
639492.1875,2456,8.098203125
639496.09375,2463,8.09826822916667
639500,2465,8.09833333333333
639503.90625,2469,8.0983984375
639507.8125,2474,8.09846354166667
639511.71875,2479,8.09852864583333
639515.625,2483,8.09859375
639519.53125,2488,8.09865885416667
639523.4375,2495,8.09872395833333
639527.34375,2500,8.0987890625
639531.25,2506,8.09885416666667
639535.15625,2514,8.09891927083333
639539.0625,2521,8.098984375
639542.96875,2531,8.09904947916667
639546.875,2541,8.09911458333333
639550.78125,2551,8.0991796875
639554.6875,2564,8.09924479166667
639558.59375,2577,8.09930989583333
639562.5,2588,8.099375
639566.40625,2597,8.09944010416667
639570.3125,2608,8.09950520833333
639574.21875,2619,8.0995703125
639578.125,2626,8.09963541666667
639582.03125,2632,8.09970052083333
639585.9375,2638,8.099765625
639589.84375,2642,8.09983072916667
639593.75,2646,8.09989583333333
639597.65625,2647,8.0999609375
639601.5625,2645,8.10002604166667
639605.46875,2643,8.10009114583333
639609.375,2637,8.10015625
639613.28125,2630,8.10022135416667
639617.1875,2619,8.10028645833333
639621.09375,2605,8.1003515625
639625,2589,8.10041666666667
639628.90625,2571,8.10048177083333
639632.8125,2548,8.100546875
639636.71875,2527,8.10061197916667
639640.625,2504,8.10067708333333
639644.53125,2483,8.1007421875
639648.4375,2463,8.10080729166667
639652.34375,2443,8.10087239583333
639656.25,2426,8.1009375
639660.15625,2410,8.10100260416667
639664.0625,2394,8.10106770833333
639667.96875,2382,8.1011328125
639671.875,2370,8.10119791666667
639675.78125,2364,8.10126302083333
639679.6875,2356,8.101328125
639683.59375,2349,8.10139322916667
639687.5,2342,8.10145833333333
639691.40625,2342,8.1015234375
639695.3125,2335,8.10158854166667
639699.21875,2335,8.10165364583333
639703.125,2333,8.10171875
639707.03125,2332,8.10178385416667
639710.9375,2331,8.10184895833333
639714.84375,2331,8.1019140625
639718.75,2330,8.10197916666667
639722.65625,2330,8.10204427083333
639726.5625,2328,8.102109375
639730.46875,2330,8.10217447916667
639734.375,2332,8.10223958333333
639738.28125,2334,8.1023046875
639742.1875,2335,8.10236979166667
639746.09375,2332,8.10243489583333
639750,2336,8.1025
639753.90625,2336,8.10256510416667
639757.8125,2339,8.10263020833333
639761.71875,2343,8.1026953125
639765.625,2344,8.10276041666667
639769.53125,2345,8.10282552083333
639773.4375,2346,8.102890625
639777.34375,2346,8.10295572916667
639781.25,2349,8.10302083333333
639785.15625,2351,8.1030859375
639789.0625,2353,8.10315104166667
639792.96875,2353,8.10321614583333
639796.875,2354,8.10328125
639800.78125,2355,8.10334635416667
639804.6875,2356,8.10341145833333
639808.59375,2357,8.1034765625
639812.5,2356,8.10354166666667
639816.40625,2357,8.10360677083333
639820.3125,2359,8.103671875
639824.21875,2359,8.10373697916667
639828.125,2359,8.10380208333333
639832.03125,2361,8.1038671875
639835.9375,2362,8.10393229166667
639839.84375,2361,8.10399739583333
639843.75,2360,8.1040625
639847.65625,2361,8.10412760416667
639851.5625,2361,8.10419270833333
639855.46875,2358,8.1042578125
639859.375,2354,8.10432291666667
639863.28125,2352,8.10438802083333
639867.1875,2351,8.104453125
639871.09375,2350,8.10451822916667
639875,2351,8.10458333333333
639878.90625,2348,8.1046484375
639882.8125,2344,8.10471354166667
639886.71875,2345,8.10477864583333
639890.625,2343,8.10484375
639894.53125,2345,8.10490885416667
639898.4375,2345,8.10497395833333
639902.34375,2345,8.1050390625
639906.25,2342,8.10510416666667
639910.15625,2337,8.10516927083333
639914.0625,2333,8.105234375
639917.96875,2333,8.10529947916667
639921.875,2331,8.10536458333333
639925.78125,2332,8.1054296875
639929.6875,2334,8.10549479166667
639933.59375,2334,8.10555989583333
639937.5,2332,8.105625
639941.40625,2332,8.10569010416667
639945.3125,2334,8.10575520833333
639949.21875,2334,8.1058203125
639953.125,2331,8.10588541666667
639957.03125,2330,8.10595052083333
639960.9375,2330,8.106015625
639964.84375,2330,8.10608072916667
639968.75,2329,8.10614583333333
639972.65625,2329,8.1062109375
639976.5625,2328,8.10627604166667
639980.46875,2329,8.10634114583333
639984.375,2331,8.10640625
639988.28125,2331,8.10647135416667
639992.1875,2327,8.10653645833333
639996.09375,2323,8.1066015625
640000,2323,8.10666666666667
640003.90625,2322,8.10673177083333
640007.8125,2319,8.106796875
640011.71875,2319,8.10686197916667
640015.625,2321,8.10692708333333
640019.53125,2322,8.1069921875
640023.4375,2320,8.10705729166667
640027.34375,2319,8.10712239583333
640031.25,2320,8.1071875
640035.15625,2322,8.10725260416667
640039.0625,2321,8.10731770833333
640042.96875,2318,8.1073828125
640046.875,2318,8.10744791666667
640050.78125,2317,8.10751302083333
640054.6875,2318,8.107578125
640058.59375,2318,8.10764322916667
640062.5,2317,8.10770833333333
640066.40625,2313,8.1077734375
640070.3125,2313,8.10783854166667
640074.21875,2313,8.10790364583333
640078.125,2315,8.10796875
640082.03125,2318,8.10803385416667
640085.9375,2314,8.10809895833333
640089.84375,2312,8.1081640625
640093.75,2313,8.10822916666667
640097.65625,2312,8.10829427083333
640101.5625,2312,8.108359375
640105.46875,2314,8.10842447916667
640109.375,2309,8.10848958333333
640113.28125,2310,8.1085546875
640117.1875,2313,8.10861979166667
640121.09375,2314,8.10868489583333
640125,2315,8.10875
640128.90625,2316,8.10881510416667
640132.8125,2316,8.10888020833333
640136.71875,2317,8.1089453125
640140.625,2319,8.10901041666667
640144.53125,2319,8.10907552083333
640148.4375,2320,8.109140625
640152.34375,2319,8.10920572916667
640156.25,2316,8.10927083333333
640160.15625,2315,8.1093359375
640164.0625,2316,8.10940104166667
640167.96875,2317,8.10946614583333
640171.875,2317,8.10953125
640175.78125,2317,8.10959635416667
640179.6875,2319,8.10966145833333
640183.59375,2317,8.1097265625
640187.5,2317,8.10979166666667
640191.40625,2322,8.10985677083333
640195.3125,2323,8.109921875
640199.21875,2321,8.10998697916667
640203.125,2317,8.11005208333333
640207.03125,2322,8.1101171875
640210.9375,2325,8.11018229166667
640214.84375,2328,8.11024739583333
640218.75,2332,8.1103125
640222.65625,2340,8.11037760416667
640226.5625,2347,8.11044270833333
640230.46875,2350,8.1105078125
640234.375,2344,8.11057291666667
640238.28125,2336,8.11063802083333
640242.1875,2333,8.110703125
640246.09375,2331,8.11076822916667
640250,2326,8.11083333333333
640253.90625,2325,8.1108984375
640257.8125,2327,8.11096354166667
640261.71875,2323,8.11102864583333
640265.625,2318,8.11109375
640269.53125,2320,8.11115885416667
640273.4375,2320,8.11122395833333
640277.34375,2318,8.1112890625
640281.25,2312,8.11135416666667
640285.15625,2310,8.11141927083333
640289.0625,2312,8.111484375
640292.96875,2314,8.11154947916667
640296.875,2314,8.11161458333333
640300.78125,2309,8.1116796875
640304.6875,2304,8.11174479166667
640308.59375,2319,8.11180989583333
640312.5,2369,8.111875
640316.40625,2440,8.11194010416667
640320.3125,2523,8.11200520833333
640324.21875,2633,8.1120703125
640328.125,2759,8.11213541666667
640332.03125,2837,8.11220052083333
640335.9375,2888,8.112265625
640339.84375,2935,8.11233072916667
640343.75,2799,8.11239583333333
640347.65625,2507,8.1124609375
640351.5625,2209,8.11252604166667
640355.46875,2008,8.11259114583333
640359.375,1942,8.11265625
640363.28125,1904,8.11272135416667
640367.1875,1900,8.11278645833333
640371.09375,1926,8.1128515625
640375,1977,8.11291666666667
640378.90625,2032,8.11298177083333
640382.8125,2105,8.113046875
640386.71875,2179,8.11311197916667
640390.625,2233,8.11317708333333
640394.53125,2266,8.1132421875
640398.4375,2281,8.11330729166667
640402.34375,2293,8.11337239583333
640406.25,2299,8.1134375
640410.15625,2300,8.11350260416667
640414.0625,2306,8.11356770833333
640417.96875,2312,8.1136328125
640421.875,2316,8.11369791666667
640425.78125,2317,8.11376302083333
640429.6875,2323,8.113828125
640433.59375,2329,8.11389322916667
640437.5,2329,8.11395833333333
640441.40625,2330,8.1140234375
640445.3125,2335,8.11408854166667
640449.21875,2344,8.11415364583333
640453.125,2345,8.11421875
640457.03125,2342,8.11428385416667
640460.9375,2339,8.11434895833333
640464.84375,2344,8.1144140625
640468.75,2351,8.11447916666667
640472.65625,2353,8.11454427083333
640476.5625,2359,8.114609375
640480.46875,2358,8.11467447916667
640484.375,2358,8.11473958333333
640488.28125,2364,8.1148046875
640492.1875,2366,8.11486979166667
640496.09375,2368,8.11493489583333
640500,2373,8.115
640503.90625,2378,8.11506510416667
640507.8125,2378,8.11513020833333
640511.71875,2384,8.1151953125
640515.625,2388,8.11526041666667
640519.53125,2391,8.11532552083333
640523.4375,2398,8.115390625
640527.34375,2407,8.11545572916667
640531.25,2419,8.11552083333333
640535.15625,2428,8.1155859375
640539.0625,2435,8.11565104166667
640542.96875,2441,8.11571614583333
640546.875,2450,8.11578125
640550.78125,2465,8.11584635416667
640554.6875,2470,8.11591145833333
640558.59375,2482,8.1159765625
640562.5,2487,8.11604166666667
640566.40625,2497,8.11610677083333
640570.3125,2507,8.116171875
640574.21875,2518,8.11623697916667
640578.125,2526,8.11630208333333
640582.03125,2533,8.1163671875
640585.9375,2534,8.11643229166667
640589.84375,2540,8.11649739583333
640593.75,2543,8.1165625
640597.65625,2543,8.11662760416667
640601.5625,2545,8.11669270833333
640605.46875,2548,8.1167578125
640609.375,2544,8.11682291666667
640613.28125,2530,8.11688802083333
640617.1875,2514,8.116953125
640621.09375,2497,8.11701822916667
640625,2478,8.11708333333333
640628.90625,2457,8.1171484375
640632.8125,2438,8.11721354166667
640636.71875,2414,8.11727864583333
640640.625,2390,8.11734375
640644.53125,2369,8.11740885416667
640648.4375,2350,8.11747395833333
640652.34375,2331,8.1175390625
640656.25,2313,8.11760416666667
640660.15625,2298,8.11766927083333
640664.0625,2281,8.117734375
640667.96875,2266,8.11779947916667
640671.875,2260,8.11786458333333
640675.78125,2247,8.1179296875
640679.6875,2238,8.11799479166667
640683.59375,2233,8.11805989583333
640687.5,2228,8.118125
640691.40625,2225,8.11819010416667
640695.3125,2216,8.11825520833333
640699.21875,2214,8.1183203125
640703.125,2209,8.11838541666667
640707.03125,2205,8.11845052083333
640710.9375,2209,8.118515625
640714.84375,2207,8.11858072916667
640718.75,2205,8.11864583333333
640722.65625,2207,8.1187109375
640726.5625,2208,8.11877604166667
640730.46875,2207,8.11884114583333
640734.375,2205,8.11890625
640738.28125,2204,8.11897135416667
640742.1875,2210,8.11903645833333
640746.09375,2214,8.1191015625
640750,2212,8.11916666666667
640753.90625,2204,8.11923177083333
640757.8125,2201,8.119296875
640761.71875,2199,8.11936197916667
640765.625,2208,8.11942708333333
640769.53125,2215,8.1194921875
640773.4375,2218,8.11955729166667
640777.34375,2218,8.11962239583333
640781.25,2218,8.1196875
640785.15625,2222,8.11975260416667
640789.0625,2225,8.11981770833333
640792.96875,2228,8.1198828125
640796.875,2230,8.11994791666667
640800.78125,2236,8.12001302083333
640804.6875,2238,8.120078125
640808.59375,2238,8.12014322916667
640812.5,2242,8.12020833333333
640816.40625,2244,8.1202734375
640820.3125,2243,8.12033854166667
640824.21875,2238,8.12040364583333
640828.125,2235,8.12046875
640832.03125,2236,8.12053385416667
640835.9375,2236,8.12059895833333
640839.84375,2235,8.1206640625
640843.75,2234,8.12072916666667
640847.65625,2230,8.12079427083333
640851.5625,2230,8.120859375
640855.46875,2229,8.12092447916667
640859.375,2222,8.12098958333333
640863.28125,2221,8.1210546875
640867.1875,2226,8.12111979166667
640871.09375,2229,8.12118489583333
640875,2231,8.12125
640878.90625,2228,8.12131510416667
640882.8125,2221,8.12138020833333
640886.71875,2215,8.1214453125
640890.625,2215,8.12151041666667
640894.53125,2217,8.12157552083333
640898.4375,2220,8.121640625
640902.34375,2219,8.12170572916667
640906.25,2222,8.12177083333333
640910.15625,2216,8.1218359375
640914.0625,2210,8.12190104166667
640917.96875,2205,8.12196614583333
640921.875,2208,8.12203125
640925.78125,2209,8.12209635416667
640929.6875,2208,8.12216145833333
640933.59375,2207,8.1222265625
640937.5,2206,8.12229166666667
640941.40625,2206,8.12235677083333
640945.3125,2209,8.122421875
640949.21875,2210,8.12248697916667
640953.125,2207,8.12255208333333
640957.03125,2202,8.1226171875
640960.9375,2204,8.12268229166667
640964.84375,2208,8.12274739583333
640968.75,2205,8.1228125
640972.65625,2207,8.12287760416667
640976.5625,2205,8.12294270833333
640980.46875,2203,8.1230078125
640984.375,2209,8.12307291666667
640988.28125,2203,8.12313802083333
640992.1875,2203,8.123203125
640996.09375,2197,8.12326822916667
641000,2197,8.12333333333333
641003.90625,2198,8.1233984375
641007.8125,2202,8.12346354166667
641011.71875,2202,8.12352864583333
641015.625,2197,8.12359375
641019.53125,2197,8.12365885416667
641023.4375,2200,8.12372395833333
641027.34375,2206,8.1237890625
641031.25,2214,8.12385416666667
641035.15625,2211,8.12391927083333
641039.0625,2208,8.123984375
641042.96875,2200,8.12404947916667
641046.875,2200,8.12411458333333
641050.78125,2204,8.1241796875
641054.6875,2218,8.12424479166667
641058.59375,2223,8.12430989583333
641062.5,2218,8.124375
641066.40625,2207,8.12444010416667
641070.3125,2206,8.12450520833333
641074.21875,2208,8.1245703125
641078.125,2217,8.12463541666667
641082.03125,2211,8.12470052083333
641085.9375,2209,8.124765625
641089.84375,2210,8.12483072916667
641093.75,2213,8.12489583333333
641097.65625,2215,8.1249609375
641101.5625,2216,8.12502604166667
641105.46875,2221,8.12509114583333
641109.375,2221,8.12515625
641113.28125,2221,8.12522135416667
641117.1875,2220,8.12528645833333
641121.09375,2219,8.1253515625
641125,2226,8.12541666666667
641128.90625,2229,8.12548177083333
641132.8125,2233,8.125546875
641136.71875,2240,8.12561197916667
641140.625,2242,8.12567708333333
641144.53125,2232,8.1257421875
641148.4375,2221,8.12580729166667
641152.34375,2226,8.12587239583333
641156.25,2233,8.1259375
641160.15625,2237,8.12600260416667
641164.0625,2249,8.12606770833333
641167.96875,2259,8.1261328125
641171.875,2269,8.12619791666667
641175.78125,2267,8.12626302083333
641179.6875,2258,8.126328125
641183.59375,2255,8.12639322916667
641187.5,2255,8.12645833333333
641191.40625,2250,8.1265234375
641195.3125,2250,8.12658854166667
641199.21875,2249,8.12665364583333
641203.125,2252,8.12671875
641207.03125,2255,8.12678385416667
641210.9375,2252,8.12684895833333
641214.84375,2250,8.1269140625
641218.75,2251,8.12697916666667
641222.65625,2251,8.12704427083333
641226.5625,2252,8.127109375
641230.46875,2252,8.12717447916667
641234.375,2253,8.12723958333333
641238.28125,2252,8.1273046875
641242.1875,2250,8.12736979166667
641246.09375,2250,8.12743489583333
641250,2256,8.1275
641253.90625,2293,8.12756510416667
641257.8125,2356,8.12763020833333
641261.71875,2438,8.1276953125
641265.625,2552,8.12776041666667
641269.53125,2684,8.12782552083333
641273.4375,2803,8.127890625
641277.34375,2862,8.12795572916667
641281.25,2909,8.12802083333333
641285.15625,2874,8.1280859375
641289.0625,2638,8.12815104166667
641292.96875,2294,8.12821614583333
641296.875,1989,8.12828125
641300.78125,1872,8.12834635416667
641304.6875,1834,8.12841145833333
641308.59375,1802,8.1284765625
641312.5,1810,8.12854166666667
641316.40625,1848,8.12860677083333
641320.3125,1919,8.128671875
641324.21875,1995,8.12873697916667
641328.125,2087,8.12880208333333
641332.03125,2165,8.1288671875
641335.9375,2208,8.12893229166667
641339.84375,2244,8.12899739583333
641343.75,2265,8.1290625
641347.65625,2273,8.12912760416667
641351.5625,2275,8.12919270833333
641355.46875,2285,8.1292578125
641359.375,2297,8.12932291666667
641363.28125,2298,8.12938802083333
641367.1875,2306,8.129453125
641371.09375,2309,8.12951822916667
641375,2309,8.12958333333333
641378.90625,2309,8.1296484375
641382.8125,2315,8.12971354166667
641386.71875,2325,8.12977864583333
641390.625,2333,8.12984375
641394.53125,2332,8.12990885416667
641398.4375,2334,8.12997395833333
641402.34375,2337,8.1300390625
641406.25,2345,8.13010416666667
641410.15625,2347,8.13016927083333
641414.0625,2352,8.130234375
641417.96875,2361,8.13029947916667
641421.875,2364,8.13036458333333
641425.78125,2367,8.1304296875
641429.6875,2370,8.13049479166667
641433.59375,2374,8.13055989583333
641437.5,2377,8.130625
641441.40625,2378,8.13069010416667
641445.3125,2389,8.13075520833333
641449.21875,2399,8.1308203125
641453.125,2406,8.13088541666667
641457.03125,2414,8.13095052083333
641460.9375,2417,8.131015625
641464.84375,2423,8.13108072916667
641468.75,2431,8.13114583333333
641472.65625,2445,8.1312109375
641476.5625,2455,8.13127604166667
641480.46875,2463,8.13134114583333
641484.375,2475,8.13140625
641488.28125,2488,8.13147135416667
641492.1875,2498,8.13153645833333
641496.09375,2503,8.1316015625
641500,2512,8.13166666666667
641503.90625,2529,8.13173177083333
641507.8125,2542,8.131796875
641511.71875,2555,8.13186197916667
641515.625,2564,8.13192708333333
641519.53125,2576,8.1319921875
641523.4375,2581,8.13205729166667
641527.34375,2593,8.13212239583333
641531.25,2597,8.1321875
641535.15625,2601,8.13225260416667
641539.0625,2601,8.13231770833333
641542.96875,2602,8.1323828125
641546.875,2599,8.13244791666667
641550.78125,2591,8.13251302083333
641554.6875,2582,8.132578125
641558.59375,2570,8.13264322916667
641562.5,2560,8.13270833333333
641566.40625,2539,8.1327734375
641570.3125,2517,8.13283854166667
641574.21875,2496,8.13290364583333
641578.125,2471,8.13296875
641582.03125,2450,8.13303385416667
641585.9375,2435,8.13309895833333
641589.84375,2413,8.1331640625
641593.75,2392,8.13322916666667
641597.65625,2372,8.13329427083333
641601.5625,2352,8.133359375
641605.46875,2336,8.13342447916667
641609.375,2322,8.13348958333333
641613.28125,2312,8.1335546875
641617.1875,2303,8.13361979166667
641621.09375,2296,8.13368489583333
641625,2290,8.13375
641628.90625,2284,8.13381510416667
641632.8125,2285,8.13388020833333
641636.71875,2279,8.1339453125
641640.625,2271,8.13401041666667
641644.53125,2273,8.13407552083333
641648.4375,2271,8.134140625
641652.34375,2270,8.13420572916667
641656.25,2267,8.13427083333333
641660.15625,2269,8.1343359375
641664.0625,2277,8.13440104166667
641667.96875,2272,8.13446614583333
641671.875,2271,8.13453125
641675.78125,2275,8.13459635416667
641679.6875,2283,8.13466145833333
641683.59375,2284,8.1347265625
641687.5,2282,8.13479166666667
641691.40625,2285,8.13485677083333
641695.3125,2286,8.134921875
641699.21875,2288,8.13498697916667
641703.125,2292,8.13505208333333
641707.03125,2298,8.1351171875
641710.9375,2300,8.13518229166667
641714.84375,2301,8.13524739583333
641718.75,2299,8.1353125
641722.65625,2304,8.13537760416667
641726.5625,2310,8.13544270833333
641730.46875,2313,8.1355078125
641734.375,2319,8.13557291666667
641738.28125,2327,8.13563802083333
641742.1875,2326,8.135703125
641746.09375,2324,8.13576822916667
641750,2323,8.13583333333333
641753.90625,2329,8.1358984375
641757.8125,2329,8.13596354166667
641761.71875,2331,8.13602864583333
641765.625,2336,8.13609375
641769.53125,2336,8.13615885416667
641773.4375,2334,8.13622395833333
641777.34375,2331,8.1362890625
641781.25,2330,8.13635416666667
641785.15625,2332,8.13641927083333
641789.0625,2332,8.136484375
641792.96875,2331,8.13654947916667
641796.875,2332,8.13661458333333
641800.78125,2330,8.1366796875
641804.6875,2331,8.13674479166667
641808.59375,2334,8.13680989583333
641812.5,2335,8.136875
641816.40625,2331,8.13694010416667
641820.3125,2326,8.13700520833333
641824.21875,2325,8.1370703125
641828.125,2327,8.13713541666667
641832.03125,2327,8.13720052083333
641835.9375,2325,8.137265625
641839.84375,2332,8.13733072916667
641843.75,2331,8.13739583333333
641847.65625,2334,8.1374609375
641851.5625,2330,8.13752604166667
641855.46875,2327,8.13759114583333
641859.375,2323,8.13765625
641863.28125,2324,8.13772135416667
641867.1875,2323,8.13778645833333
641871.09375,2322,8.1378515625
641875,2319,8.13791666666667
641878.90625,2321,8.13798177083333
641882.8125,2325,8.138046875
641886.71875,2327,8.13811197916667
641890.625,2325,8.13817708333333
641894.53125,2325,8.1382421875
641898.4375,2323,8.13830729166667
641902.34375,2325,8.13837239583333
641906.25,2326,8.1384375
641910.15625,2327,8.13850260416667
641914.0625,2327,8.13856770833333
641917.96875,2328,8.1386328125
641921.875,2328,8.13869791666667
641925.78125,2329,8.13876302083333
641929.6875,2331,8.138828125
641933.59375,2333,8.13889322916667
641937.5,2331,8.13895833333333
641941.40625,2331,8.1390234375
641945.3125,2330,8.13908854166667
641949.21875,2327,8.13915364583333
641953.125,2326,8.13921875
641957.03125,2326,8.13928385416667
641960.9375,2329,8.13934895833333
641964.84375,2334,8.1394140625
641968.75,2338,8.13947916666667
641972.65625,2339,8.13954427083333
641976.5625,2333,8.139609375
641980.46875,2332,8.13967447916667
641984.375,2335,8.13973958333333
641988.28125,2338,8.1398046875
641992.1875,2337,8.13986979166667
641996.09375,2341,8.13993489583333
642000,2341,8.14
642003.90625,2343,8.14006510416667
642007.8125,2343,8.14013020833333
642011.71875,2348,8.1401953125
642015.625,2348,8.14026041666667
642019.53125,2349,8.14032552083333
642023.4375,2350,8.140390625
642027.34375,2354,8.14045572916667
642031.25,2352,8.14052083333333
642035.15625,2347,8.1405859375
642039.0625,2347,8.14065104166667
642042.96875,2353,8.14071614583333
642046.875,2360,8.14078125
642050.78125,2370,8.14084635416667
642054.6875,2377,8.14091145833333
642058.59375,2383,8.1409765625
642062.5,2386,8.14104166666667
642066.40625,2384,8.14110677083333
642070.3125,2382,8.141171875
642074.21875,2376,8.14123697916667
642078.125,2373,8.14130208333333
642082.03125,2371,8.1413671875
642085.9375,2366,8.14143229166667
642089.84375,2372,8.14149739583333
642093.75,2368,8.1415625
642097.65625,2368,8.14162760416667
642101.5625,2368,8.14169270833333
642105.46875,2371,8.1417578125
642109.375,2371,8.14182291666667
642113.28125,2373,8.14188802083333
642117.1875,2371,8.141953125
642121.09375,2372,8.14201822916667
642125,2371,8.14208333333333
642128.90625,2369,8.1421484375
642132.8125,2367,8.14221354166667
642136.71875,2366,8.14227864583333
642140.625,2388,8.14234375
642144.53125,2445,8.14240885416667
642148.4375,2522,8.14247395833333
642152.34375,2626,8.1425390625
642156.25,2751,8.14260416666667
642160.15625,2874,8.14266927083333
642164.0625,2947,8.142734375
642167.96875,3001,8.14279947916667
642171.875,3034,8.14286458333333
642175.78125,2858,8.1429296875
642179.6875,2531,8.14299479166667
642183.59375,2213,8.14305989583333
642187.5,2023,8.143125
642191.40625,1972,8.14319010416667
642195.3125,1951,8.14325520833333
642199.21875,1957,8.1433203125
642203.125,1994,8.14338541666667
642207.03125,2055,8.14345052083333
642210.9375,2115,8.143515625
642214.84375,2191,8.14358072916667
642218.75,2262,8.14364583333333
642222.65625,2315,8.1437109375
642226.5625,2348,8.14377604166667
642230.46875,2367,8.14384114583333
642234.375,2379,8.14390625
642238.28125,2387,8.14397135416667
642242.1875,2390,8.14403645833333
642246.09375,2391,8.1441015625
642250,2394,8.14416666666667
642253.90625,2400,8.14423177083333
642257.8125,2404,8.144296875
642261.71875,2407,8.14436197916667
642265.625,2413,8.14442708333333
642269.53125,2416,8.1444921875
642273.4375,2421,8.14455729166667
642277.34375,2423,8.14462239583333
642281.25,2424,8.1446875
642285.15625,2428,8.14475260416667
642289.0625,2435,8.14481770833333
642292.96875,2439,8.1448828125
642296.875,2440,8.14494791666667
642300.78125,2446,8.14501302083333
642304.6875,2450,8.145078125
642308.59375,2454,8.14514322916667
642312.5,2456,8.14520833333333
642316.40625,2460,8.1452734375
642320.3125,2464,8.14533854166667
642324.21875,2469,8.14540364583333
642328.125,2474,8.14546875
642332.03125,2479,8.14553385416667
642335.9375,2483,8.14559895833333
642339.84375,2490,8.1456640625
642343.75,2495,8.14572916666667
642347.65625,2501,8.14579427083333
642351.5625,2506,8.145859375
642355.46875,2512,8.14592447916667
642359.375,2521,8.14598958333333
642363.28125,2532,8.1460546875
642367.1875,2540,8.14611979166667
642371.09375,2549,8.14618489583333
642375,2557,8.14625
642378.90625,2569,8.14631510416667
642382.8125,2583,8.14638020833333
642386.71875,2596,8.1464453125
642390.625,2608,8.14651041666667
642394.53125,2617,8.14657552083333
642398.4375,2626,8.146640625
642402.34375,2636,8.14670572916667
642406.25,2646,8.14677083333333
642410.15625,2655,8.1468359375
642414.0625,2659,8.14690104166667
642417.96875,2664,8.14696614583333
642421.875,2665,8.14703125
642425.78125,2669,8.14709635416667
642429.6875,2666,8.14716145833333
642433.59375,2661,8.1472265625
642437.5,2654,8.14729166666667
642441.40625,2644,8.14735677083333
642445.3125,2632,8.147421875
642449.21875,2614,8.14748697916667
642453.125,2598,8.14755208333333
642457.03125,2575,8.1476171875
642460.9375,2551,8.14768229166667
642464.84375,2529,8.14774739583333
642468.75,2507,8.1478125
642472.65625,2484,8.14787760416667
642476.5625,2462,8.14794270833333
642480.46875,2442,8.1480078125
642484.375,2424,8.14807291666667
642488.28125,2409,8.14813802083333
642492.1875,2396,8.148203125
642496.09375,2385,8.14826822916667
642500,2373,8.14833333333333
642503.90625,2367,8.1483984375
642507.8125,2359,8.14846354166667
642511.71875,2352,8.14852864583333
642515.625,2346,8.14859375
642519.53125,2343,8.14865885416667
642523.4375,2341,8.14872395833333
642527.34375,2339,8.1487890625
642531.25,2336,8.14885416666667
642535.15625,2336,8.14891927083333
642539.0625,2335,8.148984375
642542.96875,2336,8.14904947916667
642546.875,2334,8.14911458333333
642550.78125,2331,8.1491796875
642554.6875,2331,8.14924479166667
642558.59375,2332,8.14930989583333
642562.5,2336,8.149375
642566.40625,2337,8.14944010416667
642570.3125,2340,8.14950520833333
642574.21875,2340,8.1495703125
642578.125,2342,8.14963541666667
642582.03125,2343,8.14970052083333
642585.9375,2345,8.149765625
642589.84375,2349,8.14983072916667
642593.75,2353,8.14989583333333
642597.65625,2354,8.1499609375
642601.5625,2356,8.15002604166667
642605.46875,2358,8.15009114583333
642609.375,2360,8.15015625
642613.28125,2360,8.15022135416667
642617.1875,2361,8.15028645833333
642621.09375,2366,8.1503515625
642625,2369,8.15041666666667
642628.90625,2370,8.15048177083333
642632.8125,2373,8.150546875
642636.71875,2373,8.15061197916667
642640.625,2373,8.15067708333333
642644.53125,2372,8.1507421875
642648.4375,2372,8.15080729166667
642652.34375,2375,8.15087239583333
642656.25,2377,8.1509375
642660.15625,2379,8.15100260416667
642664.0625,2379,8.15106770833333
642667.96875,2379,8.1511328125
642671.875,2380,8.15119791666667
642675.78125,2379,8.15126302083333
642679.6875,2376,8.151328125
642683.59375,2375,8.15139322916667
642687.5,2374,8.15145833333333
642691.40625,2374,8.1515234375
642695.3125,2372,8.15158854166667
642699.21875,2372,8.15165364583333
642703.125,2371,8.15171875
642707.03125,2372,8.15178385416667
642710.9375,2369,8.15184895833333
642714.84375,2368,8.1519140625
642718.75,2365,8.15197916666667
642722.65625,2367,8.15204427083333
642726.5625,2366,8.152109375
642730.46875,2364,8.15217447916667
642734.375,2362,8.15223958333333
642738.28125,2362,8.1523046875
642742.1875,2361,8.15236979166667
642746.09375,2360,8.15243489583333
642750,2361,8.1525
642753.90625,2359,8.15256510416667
642757.8125,2357,8.15263020833333
642761.71875,2359,8.1526953125
642765.625,2358,8.15276041666667
642769.53125,2359,8.15282552083333
642773.4375,2360,8.152890625
642777.34375,2360,8.15295572916667
642781.25,2357,8.15302083333333
642785.15625,2356,8.1530859375
642789.0625,2356,8.15315104166667
642792.96875,2357,8.15321614583333
642796.875,2357,8.15328125
642800.78125,2357,8.15334635416667
642804.6875,2355,8.15341145833333
642808.59375,2356,8.1534765625
642812.5,2356,8.15354166666667
642816.40625,2357,8.15360677083333
642820.3125,2355,8.153671875
642824.21875,2356,8.15373697916667
642828.125,2356,8.15380208333333
642832.03125,2355,8.1538671875
642835.9375,2358,8.15393229166667
642839.84375,2354,8.15399739583333
642843.75,2354,8.1540625
642847.65625,2353,8.15412760416667
642851.5625,2354,8.15419270833333
642855.46875,2354,8.1542578125
642859.375,2356,8.15432291666667
642863.28125,2355,8.15438802083333
642867.1875,2357,8.154453125
642871.09375,2352,8.15451822916667
642875,2356,8.15458333333333
642878.90625,2354,8.1546484375
642882.8125,2353,8.15471354166667
642886.71875,2354,8.15477864583333
642890.625,2355,8.15484375
642894.53125,2356,8.15490885416667
642898.4375,2356,8.15497395833333
642902.34375,2355,8.1550390625
642906.25,2356,8.15510416666667
642910.15625,2358,8.15516927083333
642914.0625,2357,8.155234375
642917.96875,2358,8.15529947916667
642921.875,2360,8.15536458333333
642925.78125,2360,8.1554296875
642929.6875,2359,8.15549479166667
642933.59375,2362,8.15555989583333
642937.5,2362,8.155625
642941.40625,2362,8.15569010416667
642945.3125,2363,8.15575520833333
642949.21875,2365,8.1558203125
642953.125,2364,8.15588541666667
642957.03125,2362,8.15595052083333
642960.9375,2362,8.156015625
642964.84375,2368,8.15608072916667
642968.75,2372,8.15614583333333
642972.65625,2376,8.1562109375
642976.5625,2380,8.15627604166667
642980.46875,2390,8.15634114583333
642984.375,2394,8.15640625
642988.28125,2392,8.15647135416667
642992.1875,2384,8.15653645833333
642996.09375,2381,8.1566015625
643000,2378,8.15666666666667
643003.90625,2375,8.15673177083333
643007.8125,2374,8.156796875
643011.71875,2374,8.15686197916667
643015.625,2375,8.15692708333333
643019.53125,2374,8.1569921875
643023.4375,2371,8.15705729166667
643027.34375,2372,8.15712239583333
643031.25,2371,8.1571875
643035.15625,2371,8.15725260416667
643039.0625,2372,8.15731770833333
643042.96875,2374,8.1573828125
643046.875,2374,8.15744791666667
643050.78125,2375,8.15751302083333
643054.6875,2371,8.157578125
643058.59375,2367,8.15764322916667
643062.5,2372,8.15770833333333
643066.40625,2408,8.1577734375
643070.3125,2474,8.15783854166667
643074.21875,2560,8.15790364583333
643078.125,2670,8.15796875
643082.03125,2789,8.15803385416667
643085.9375,2884,8.15809895833333
643089.84375,2948,8.1581640625
643093.75,3006,8.15822916666667
643097.65625,2923,8.15829427083333
643101.5625,2652,8.158359375
643105.46875,2339,8.15842447916667
643109.375,2098,8.15848958333333
643113.28125,2013,8.1585546875
643117.1875,1983,8.15861979166667
643121.09375,1976,8.15868489583333
643125,2007,8.15875
643128.90625,2068,8.15881510416667
643132.8125,2121,8.15888020833333
643136.71875,2183,8.1589453125
643140.625,2248,8.15901041666667
643144.53125,2295,8.15907552083333
643148.4375,2333,8.159140625
643152.34375,2353,8.15920572916667
643156.25,2362,8.15927083333333
643160.15625,2366,8.1593359375
643164.0625,2372,8.15940104166667
643167.96875,2376,8.15946614583333
643171.875,2380,8.15953125
643175.78125,2385,8.15959635416667
643179.6875,2389,8.15966145833333
643183.59375,2392,8.1597265625
643187.5,2394,8.15979166666667
643191.40625,2398,8.15985677083333
643195.3125,2402,8.159921875
643199.21875,2404,8.15998697916667
643203.125,2407,8.16005208333333
643207.03125,2410,8.1601171875
643210.9375,2411,8.16018229166667
643214.84375,2412,8.16024739583333
643218.75,2415,8.1603125
643222.65625,2417,8.16037760416667
643226.5625,2421,8.16044270833333
643230.46875,2424,8.1605078125
643234.375,2425,8.16057291666667
643238.28125,2430,8.16063802083333
643242.1875,2434,8.160703125
643246.09375,2439,8.16076822916667
643250,2443,8.16083333333333
643253.90625,2447,8.1608984375
643257.8125,2451,8.16096354166667
643261.71875,2456,8.16102864583333
643265.625,2460,8.16109375
643269.53125,2466,8.16115885416667
643273.4375,2470,8.16122395833333
643277.34375,2477,8.1612890625
643281.25,2484,8.16135416666667
643285.15625,2492,8.16141927083333
643289.0625,2499,8.161484375
643292.96875,2508,8.16154947916667
643296.875,2520,8.16161458333333
643300.78125,2532,8.1616796875
643304.6875,2544,8.16174479166667
643308.59375,2555,8.16180989583333
643312.5,2566,8.161875
643316.40625,2577,8.16194010416667
643320.3125,2587,8.16200520833333
643324.21875,2597,8.1620703125
643328.125,2603,8.16213541666667
643332.03125,2611,8.16220052083333
643335.9375,2617,8.162265625
643339.84375,2625,8.16233072916667
643343.75,2627,8.16239583333333
643347.65625,2631,8.1624609375
643351.5625,2631,8.16252604166667
643355.46875,2628,8.16259114583333
643359.375,2624,8.16265625
643363.28125,2617,8.16272135416667
643367.1875,2606,8.16278645833333
643371.09375,2594,8.1628515625
643375,2575,8.16291666666667
643378.90625,2553,8.16298177083333
643382.8125,2532,8.163046875
643386.71875,2510,8.16311197916667
643390.625,2487,8.16317708333333
643394.53125,2464,8.1632421875
643398.4375,2442,8.16330729166667
643402.34375,2427,8.16337239583333
643406.25,2405,8.1634375
643410.15625,2390,8.16350260416667
643414.0625,2374,8.16356770833333
643417.96875,2364,8.1636328125
643421.875,2355,8.16369791666667
643425.78125,2341,8.16376302083333
643429.6875,2336,8.163828125
643433.59375,2328,8.16389322916667
643437.5,2323,8.16395833333333
643441.40625,2319,8.1640234375
643445.3125,2316,8.16408854166667
643449.21875,2314,8.16415364583333
643453.125,2313,8.16421875
643457.03125,2311,8.16428385416667
643460.9375,2308,8.16434895833333
643464.84375,2309,8.1644140625
643468.75,2307,8.16447916666667
643472.65625,2308,8.16454427083333
643476.5625,2307,8.164609375
643480.46875,2307,8.16467447916667
643484.375,2307,8.16473958333333
643488.28125,2307,8.1648046875
643492.1875,2308,8.16486979166667
643496.09375,2308,8.16493489583333
643500,2310,8.165
643503.90625,2311,8.16506510416667
643507.8125,2311,8.16513020833333
643511.71875,2312,8.1651953125
643515.625,2315,8.16526041666667
643519.53125,2317,8.16532552083333
643523.4375,2318,8.165390625
643527.34375,2320,8.16545572916667
643531.25,2324,8.16552083333333
643535.15625,2325,8.1655859375
643539.0625,2328,8.16565104166667
643542.96875,2330,8.16571614583333
643546.875,2331,8.16578125
643550.78125,2331,8.16584635416667
643554.6875,2333,8.16591145833333
643558.59375,2334,8.1659765625
643562.5,2334,8.16604166666667
643566.40625,2336,8.16610677083333
643570.3125,2337,8.166171875
643574.21875,2337,8.16623697916667
643578.125,2336,8.16630208333333
643582.03125,2337,8.1663671875
643585.9375,2336,8.16643229166667
643589.84375,2341,8.16649739583333
643593.75,2342,8.1665625
643597.65625,2343,8.16662760416667
643601.5625,2341,8.16669270833333
643605.46875,2342,8.1667578125
643609.375,2340,8.16682291666667
643613.28125,2339,8.16688802083333
643617.1875,2338,8.166953125
643621.09375,2337,8.16701822916667
643625,2334,8.16708333333333
643628.90625,2334,8.1671484375
643632.8125,2330,8.16721354166667
643636.71875,2329,8.16727864583333
643640.625,2327,8.16734375
643644.53125,2325,8.16740885416667
643648.4375,2325,8.16747395833333
643652.34375,2324,8.1675390625
643656.25,2324,8.16760416666667
643660.15625,2324,8.16766927083333
643664.0625,2323,8.167734375
643667.96875,2323,8.16779947916667
643671.875,2322,8.16786458333333
643675.78125,2320,8.1679296875
643679.6875,2318,8.16799479166667
643683.59375,2318,8.16805989583333
643687.5,2317,8.168125
643691.40625,2317,8.16819010416667
643695.3125,2315,8.16825520833333
643699.21875,2316,8.1683203125
643703.125,2316,8.16838541666667
643707.03125,2316,8.16845052083333
643710.9375,2319,8.168515625
643714.84375,2319,8.16858072916667
643718.75,2319,8.16864583333333
643722.65625,2318,8.1687109375
643726.5625,2319,8.16877604166667
643730.46875,2319,8.16884114583333
643734.375,2315,8.16890625
643738.28125,2314,8.16897135416667
643742.1875,2313,8.16903645833333
643746.09375,2314,8.1691015625
643750,2312,8.16916666666667
643753.90625,2315,8.16923177083333
643757.8125,2316,8.169296875
643761.71875,2312,8.16936197916667
643765.625,2310,8.16942708333333
643769.53125,2312,8.1694921875
643773.4375,2311,8.16955729166667
643777.34375,2313,8.16962239583333
643781.25,2312,8.1696875
643785.15625,2312,8.16975260416667
643789.0625,2310,8.16981770833333
643792.96875,2312,8.1698828125
643796.875,2309,8.16994791666667
643800.78125,2306,8.17001302083333
643804.6875,2305,8.170078125
643808.59375,2306,8.17014322916667
643812.5,2308,8.17020833333333
643816.40625,2308,8.1702734375
643820.3125,2310,8.17033854166667
643824.21875,2311,8.17040364583333
643828.125,2311,8.17046875
643832.03125,2311,8.17053385416667
643835.9375,2310,8.17059895833333
643839.84375,2308,8.1706640625
643843.75,2307,8.17072916666667
643847.65625,2308,8.17079427083333
643851.5625,2308,8.170859375
643855.46875,2307,8.17092447916667
643859.375,2305,8.17098958333333
643863.28125,2308,8.1710546875
643867.1875,2309,8.17111979166667
643871.09375,2310,8.17118489583333
643875,2305,8.17125
643878.90625,2304,8.17131510416667
643882.8125,2303,8.17138020833333
643886.71875,2302,8.1714453125
643890.625,2304,8.17151041666667
643894.53125,2313,8.17157552083333
643898.4375,2315,8.171640625
643902.34375,2311,8.17170572916667
643906.25,2306,8.17177083333333
643910.15625,2309,8.1718359375
643914.0625,2315,8.17190104166667
643917.96875,2323,8.17196614583333
643921.875,2327,8.17203125
643925.78125,2334,8.17209635416667
643929.6875,2334,8.17216145833333
643933.59375,2330,8.1722265625
643937.5,2326,8.17229166666667
643941.40625,2317,8.17235677083333
643945.3125,2309,8.172421875
643949.21875,2309,8.17248697916667
643953.125,2308,8.17255208333333
643957.03125,2308,8.1726171875
643960.9375,2310,8.17268229166667
643964.84375,2306,8.17274739583333
643968.75,2303,8.1728125
643972.65625,2303,8.17287760416667
643976.5625,2299,8.17294270833333
643980.46875,2299,8.1730078125
643984.375,2302,8.17307291666667
643988.28125,2303,8.17313802083333
643992.1875,2303,8.173203125
643996.09375,2303,8.17326822916667
644000,2298,8.17333333333333
644003.90625,2297,8.1733984375
644007.8125,2295,8.17346354166667
644011.71875,2321,8.17352864583333
644015.625,2380,8.17359375
644019.53125,2452,8.17365885416667
644023.4375,2553,8.17372395833333
644027.34375,2672,8.1737890625
644031.25,2780,8.17385416666667
644035.15625,2849,8.17391927083333
644039.0625,2903,8.173984375
644042.96875,2890,8.17404947916667
644046.875,2670,8.17411458333333
644050.78125,2357,8.1741796875
644054.6875,2089,8.17424479166667
644058.59375,1964,8.17430989583333
644062.5,1914,8.174375
644066.40625,1899,8.17444010416667
644070.3125,1912,8.17450520833333
644074.21875,1957,8.1745703125
644078.125,2006,8.17463541666667
644082.03125,2061,8.17470052083333
644085.9375,2138,8.174765625
644089.84375,2190,8.17483072916667
644093.75,2235,8.17489583333333
644097.65625,2265,8.1749609375
644101.5625,2276,8.17502604166667
644105.46875,2283,8.17509114583333
644109.375,2290,8.17515625
644113.28125,2295,8.17522135416667
644117.1875,2303,8.17528645833333
644121.09375,2308,8.1753515625
644125,2310,8.17541666666667
644128.90625,2310,8.17548177083333
644132.8125,2311,8.175546875
644136.71875,2314,8.17561197916667
644140.625,2316,8.17567708333333
644144.53125,2318,8.1757421875
644148.4375,2319,8.17580729166667
644152.34375,2324,8.17587239583333
644156.25,2321,8.1759375
644160.15625,2325,8.17600260416667
644164.0625,2329,8.17606770833333
644167.96875,2326,8.1761328125
644171.875,2328,8.17619791666667
644175.78125,2332,8.17626302083333
644179.6875,2342,8.176328125
644183.59375,2349,8.17639322916667
644187.5,2353,8.17645833333333
644191.40625,2355,8.1765234375
644195.3125,2351,8.17658854166667
644199.21875,2356,8.17665364583333
644203.125,2359,8.17671875
644207.03125,2368,8.17678385416667
644210.9375,2376,8.17684895833333
644214.84375,2379,8.1769140625
644218.75,2381,8.17697916666667
644222.65625,2388,8.17704427083333
644226.5625,2396,8.177109375
644230.46875,2407,8.17717447916667
644234.375,2413,8.17723958333333
644238.28125,2421,8.1773046875
644242.1875,2431,8.17736979166667
644246.09375,2444,8.17743489583333
644250,2454,8.1775
644253.90625,2464,8.17756510416667
644257.8125,2474,8.17763020833333
644261.71875,2484,8.1776953125
644265.625,2494,8.17776041666667
644269.53125,2507,8.17782552083333
644273.4375,2511,8.177890625
644277.34375,2518,8.17795572916667
644281.25,2529,8.17802083333333
644285.15625,2538,8.1780859375
644289.0625,2540,8.17815104166667
644292.96875,2540,8.17821614583333
644296.875,2542,8.17828125
644300.78125,2542,8.17834635416667
644304.6875,2542,8.17841145833333
644308.59375,2540,8.1784765625
644312.5,2528,8.17854166666667
644316.40625,2511,8.17860677083333
644320.3125,2499,8.178671875
644324.21875,2482,8.17873697916667
644328.125,2467,8.17880208333333
644332.03125,2445,8.1788671875
644335.9375,2419,8.17893229166667
644339.84375,2394,8.17899739583333
644343.75,2372,8.1790625
644347.65625,2348,8.17912760416667
644351.5625,2333,8.17919270833333
644355.46875,2315,8.1792578125
644359.375,2294,8.17932291666667
644363.28125,2279,8.17938802083333
644367.1875,2263,8.179453125
644371.09375,2254,8.17951822916667
644375,2252,8.17958333333333
644378.90625,2248,8.1796484375
644382.8125,2243,8.17971354166667
644386.71875,2235,8.17977864583333
644390.625,2224,8.17984375
644394.53125,2221,8.17990885416667
644398.4375,2218,8.17997395833333
644402.34375,2219,8.1800390625
644406.25,2223,8.18010416666667
644410.15625,2222,8.18016927083333
644414.0625,2215,8.180234375
644417.96875,2209,8.18029947916667
644421.875,2203,8.18036458333333
644425.78125,2204,8.1804296875
644429.6875,2206,8.18049479166667
644433.59375,2210,8.18055989583333
644437.5,2212,8.180625
644441.40625,2209,8.18069010416667
644445.3125,2206,8.18075520833333
644449.21875,2209,8.1808203125
644453.125,2213,8.18088541666667
644457.03125,2214,8.18095052083333
644460.9375,2214,8.181015625
644464.84375,2217,8.18108072916667
644468.75,2220,8.18114583333333
644472.65625,2222,8.1812109375
644476.5625,2221,8.18127604166667
644480.46875,2222,8.18134114583333
644484.375,2228,8.18140625
644488.28125,2234,8.18147135416667
644492.1875,2234,8.18153645833333
644496.09375,2234,8.1816015625
644500,2235,8.18166666666667
644503.90625,2238,8.18173177083333
644507.8125,2238,8.181796875
644511.71875,2236,8.18186197916667
644515.625,2240,8.18192708333333
644519.53125,2238,8.1819921875
644523.4375,2240,8.18205729166667
644527.34375,2237,8.18212239583333
644531.25,2237,8.1821875
644535.15625,2243,8.18225260416667
644539.0625,2244,8.18231770833333
644542.96875,2233,8.1823828125
644546.875,2235,8.18244791666667
644550.78125,2238,8.18251302083333
644554.6875,2235,8.182578125
644558.59375,2233,8.18264322916667
644562.5,2236,8.18270833333333
644566.40625,2237,8.1827734375
644570.3125,2229,8.18283854166667
644574.21875,2224,8.18290364583333
644578.125,2223,8.18296875
644582.03125,2225,8.18303385416667
644585.9375,2227,8.18309895833333
644589.84375,2226,8.1831640625
644593.75,2227,8.18322916666667
644597.65625,2221,8.18329427083333
644601.5625,2211,8.183359375
644605.46875,2210,8.18342447916667
644609.375,2212,8.18348958333333
644613.28125,2218,8.1835546875
644617.1875,2216,8.18361979166667
644621.09375,2219,8.18368489583333
644625,2220,8.18375
644628.90625,2219,8.18381510416667
644632.8125,2219,8.18388020833333
644636.71875,2211,8.1839453125
644640.625,2208,8.18401041666667
644644.53125,2202,8.18407552083333
644648.4375,2204,8.184140625
644652.34375,2210,8.18420572916667
644656.25,2209,8.18427083333333
644660.15625,2211,8.1843359375
644664.0625,2209,8.18440104166667
644667.96875,2204,8.18446614583333
644671.875,2202,8.18453125
644675.78125,2209,8.18459635416667
644679.6875,2208,8.18466145833333
644683.59375,2203,8.1847265625
644687.5,2203,8.18479166666667
644691.40625,2207,8.18485677083333
644695.3125,2208,8.184921875
644699.21875,2203,8.18498697916667
644703.125,2203,8.18505208333333
644707.03125,2208,8.1851171875
644710.9375,2208,8.18518229166667
644714.84375,2199,8.18524739583333
644718.75,2196,8.1853125
644722.65625,2195,8.18537760416667
644726.5625,2197,8.18544270833333
644730.46875,2206,8.1855078125
644734.375,2211,8.18557291666667
644738.28125,2212,8.18563802083333
644742.1875,2203,8.185703125
644746.09375,2199,8.18576822916667
644750,2200,8.18583333333333
644753.90625,2206,8.1858984375
644757.8125,2208,8.18596354166667
644761.71875,2211,8.18602864583333
644765.625,2209,8.18609375
644769.53125,2212,8.18615885416667
644773.4375,2209,8.18622395833333
644777.34375,2209,8.1862890625
644781.25,2205,8.18635416666667
644785.15625,2203,8.18641927083333
644789.0625,2208,8.186484375
644792.96875,2214,8.18654947916667
644796.875,2210,8.18661458333333
644800.78125,2213,8.1866796875
644804.6875,2216,8.18674479166667
644808.59375,2221,8.18680989583333
644812.5,2221,8.186875
644816.40625,2225,8.18694010416667
644820.3125,2234,8.18700520833333
644824.21875,2243,8.1870703125
644828.125,2245,8.18713541666667
644832.03125,2237,8.18720052083333
644835.9375,2230,8.187265625
644839.84375,2233,8.18733072916667
644843.75,2228,8.18739583333333
644847.65625,2225,8.1874609375
644851.5625,2222,8.18752604166667
644855.46875,2226,8.18759114583333
644859.375,2227,8.18765625
644863.28125,2220,8.18772135416667
644867.1875,2218,8.18778645833333
644871.09375,2216,8.1878515625
644875,2216,8.18791666666667
644878.90625,2218,8.18798177083333
644882.8125,2219,8.188046875
644886.71875,2229,8.18811197916667
644890.625,2230,8.18817708333333
644894.53125,2222,8.1882421875
